frame_start	frame_end	highbinding	left_cerebral_white_matter	left_cerebellum_white_matter	left_cerebellum_cortex	left_thalamus	left_caudate	left_putamen	left_pallidum	brain_stem	left_hippocampus	left_amygdala	csf	left_accumbens_area	left_ventraldc	left_choroid_plexus	right_cerebral_white_matter	right_cerebellum_white_matter	right_cerebellum_cortex	right_thalamus	right_caudate	right_putamen	right_pallidum	right_hippocampus	right_amygdala	right_accumbens_area	right_ventraldc	right_choroid_plexus	aircavity	skull	vermis	pons	csf_extracerebral	head_extracerebral	ctx_lh_bankssts	ctx_lh_caudalanteriorcingulate	ctx_lh_caudalmiddlefrontal	ctx_lh_cuneus	ctx_lh_entorhinal	ctx_lh_fusiform	ctx_lh_inferiorparietal	ctx_lh_inferiortemporal	ctx_lh_isthmuscingulate	ctx_lh_lateraloccipital	ctx_lh_lateralorbitofrontal	ctx_lh_lingual	ctx_lh_medialorbitofrontal	ctx_lh_middletemporal	ctx_lh_parahippocampal	ctx_lh_paracentral	ctx_lh_parsopercularis	ctx_lh_parsorbitalis	ctx_lh_parstriangularis	ctx_lh_pericalcarine	ctx_lh_postcentral	ctx_lh_posteriorcingulate	ctx_lh_precentral	ctx_lh_precuneus	ctx_lh_rostralanteriorcingulate	ctx_lh_rostralmiddlefrontal	ctx_lh_superiorfrontal	ctx_lh_superiorparietal	ctx_lh_superiortemporal	ctx_lh_supramarginal	ctx_lh_frontalpole	ctx_lh_temporalpole	ctx_lh_transversetemporal	ctx_lh_insula	ctx_rh_bankssts	ctx_rh_caudalanteriorcingulate	ctx_rh_caudalmiddlefrontal	ctx_rh_cuneus	ctx_rh_entorhinal	ctx_rh_fusiform	ctx_rh_inferiorparietal	ctx_rh_inferiortemporal	ctx_rh_isthmuscingulate	ctx_rh_lateraloccipital	ctx_rh_lateralorbitofrontal	ctx_rh_lingual	ctx_rh_medialorbitofrontal	ctx_rh_middletemporal	ctx_rh_parahippocampal	ctx_rh_paracentral	ctx_rh_parsopercularis	ctx_rh_parsorbitalis	ctx_rh_parstriangularis	ctx_rh_pericalcarine	ctx_rh_postcentral	ctx_rh_posteriorcingulate	ctx_rh_precentral	ctx_rh_precuneus	ctx_rh_rostralanteriorcingulate	ctx_rh_rostralmiddlefrontal	ctx_rh_superiorfrontal	ctx_rh_superiorparietal	ctx_rh_superiortemporal	ctx_rh_supramarginal	ctx_rh_frontalpole	ctx_rh_temporalpole	ctx_rh_transversetemporal	ctx_rh_insula	reference
0	15	0.004523920826614	0.009135061874985695	0.01167925912886858	5.155291364644654e-05	0.003671332262456417	0.002326015383005142	0.0003680959634948522	0.000339943973813206	0.001527136308141053	0.0001030888161039911	0.1042390614748001	0.01255737897008657	0.3643284142017365	0.0308225229382515	0	0.008559044450521469	1.495519791205879e-05	0.0008473350899294019	0.01504764147102833	0.006776441819965839	0.006497626192867756	0.0004909702111035585	0.03965482860803604	0.004886251874268055	7.942011507111602e-06	0.002131486777216196	0	0.002130847424268723	0.002215408720076084	0	0.000127222971059382	0.005922645796090364	0.001880729803815484	0.01659389212727547	0.06965474039316177	0.0002177799178753048	0.0004924092208966613	0.000107900814327877	1.472427470616822e-06	0.0003571604611352086	0.0002248302334919572	0.07689954340457916	0.0142868347465992	0.01627220772206783	3.438076964812353e-05	0.1067683547735214	0.002943365136161447	2.594594548099849e-07	8.337291365023702e-05	0.001862589386291802	0.02017483673989773	0.0001165353023679927	0.0005640266463160515	0.01068742759525776	0.001451171934604645	0.0007644190918654203	0.00653278362005949	0.001174907549284399	0.005377050954848528	0.004766273312270641	0.001694627804681659	0.03575193136930466	0.001301548909395933	9.392576430400368e-06	0.00722496910020709	6.776436930522323e-05	0.005452408455312252	6.583851063624024e-05	0.02705047279596329	0.0004972802707925439	9.052501809492242e-06	0.02889337204396725	0.002683247672393918	0.000118245865451172	0.01701485924422741	0.0006743468111380935	0.0002991679066326469	0.0048491470515728	0.01540798880159855	0.008549625054001808	0.008143026381731033	0.000937564589548856	0.001129049924202263	0.005468086339533329	0.007256802637130022	0.003283201484009624	0.006290823686867952	0.0003161190252285451	6.879898865008727e-05	0.00890903826802969	0.0008321570931002498	0.07746967673301697	0.007906632497906685	0.01288614142686129	0.0008261302136816084	0.001290693180635571	0.004331999458372593	0.0002388437569607049	0.0004406585358083248	0.01413585711270571	0.03557771444320679	-0.000975445240329
15	30	1.069758653640747	0.9024360775947571	0.9402889609336853	1.314392924308777	1.329395413398743	0.8837165832519531	1.089032769203186	1.144113183021545	1.233436942100525	1.644564270973206	1.648669004440308	0.9084293246269226	1.6602703332901	1.494187831878662	2.05257773399353	0.8807636499404907	0.9448840618133545	1.461824417114258	1.063271999359131	0.9071903824806213	0.9955423474311829	0.9345816373825073	1.007820963859558	3.011865377426147	0.8545121550559998	2.036150932312012	1.139983892440796	0.7157349586486816	0.7734442949295044	1.29042112827301	1.304249286651611	2.132911682128906	0.8968291282653809	1.063907027244568	1.67157244682312	1.139640808105469	1.350725412368774	1.029576778411865	1.156335592269897	1.24410080909729	1.240315556526184	1.531853079795837	1.5669184923172	1.213995695114136	1.645258545875549	1.464479923248291	1.329697251319885	1.251603603363037	1.58741819858551	1.35887885093689	1.210645914077759	1.602382659912109	1.305684804916382	1.435717940330505	1.372190713882446	1.245848298072815	1.22113573551178	1.783927083015442	1.214664101600647	1.380731105804443	1.351315259933472	1.647295594215393	1.235845327377319	1.160982489585876	1.086147665977478	2.051336288452148	1.719656109809875	0.964046835899353	1.11614191532135	1.069410681724548	1.368746399879456	1.44996178150177	1.410140037536621	1.167573690414429	1.172767281532288	1.479167461395264	1.417210459709167	1.255010604858398	1.369779825210571	1.547757625579834	1.139187693595886	1.078330516815186	1.618114352226257	1.55387806892395	1.448746800422668	1.121504068374634	1.382676362991333	1.690380454063416	1.293312907218933	1.189062118530273	1.25353217124939	1.85887086391449	1.125211477279663	1.250498652458191	1.331809043884277	1.738242030143738	1.24833071231842	1.605295300483704	1.081041574478149	1.602128148078918	1.885638117790222	1.339747130870819
30	45	2.515699863433838	2.486246347427368	2.233591079711914	3.645164728164673	3.020275831222534	1.738470911979675	2.744870185852051	2.14030909538269	2.795628309249878	3.393821239471436	2.800834655761719	2.304308414459229	1.32612681388855	2.619118928909302	1.939695119857788	2.307011127471924	2.471632480621338	3.676146030426025	3.030325889587402	2.331714153289795	2.153989315032959	2.119122505187988	3.20059061050415	3.230356693267822	2.154812335968018	3.139229774475098	1.924816966056824	2.168393135070801	2.226736783981323	3.012753963470459	2.728114128112793	4.139874458312988	2.427686214447021	2.641746044158936	2.73739218711853	3.112757205963135	4.200222969055176	3.475780248641968	3.138968229293823	2.967723846435547	2.933906555175781	3.679327011108398	3.567402839660645	2.597994565963745	3.903746843338013	2.490431547164917	2.622977733612061	2.148439884185791	4.428598403930664	3.348223447799683	3.36937403678894	3.089233636856079	4.477541446685791	2.855832099914551	3.316183090209961	3.03044867515564	3.634062051773071	3.256877899169922	2.971235036849976	2.950969219207764	3.452353954315186	3.166947603225708	2.881947994232178	3.486820459365845	3.013073682785034	3.47025728225708	3.028682470321655	3.323539733886719	3.35187029838562	2.73822021484375	3.846504688262939	3.653223514556885	3.161503791809082	2.804123401641846	3.078308343887329	3.548373460769653	3.190537214279175	2.903001070022583	3.780106067657471	2.9953932762146	2.831936359405518	2.836865901947021	2.850474834442139	2.761335849761963	2.317732095718384	2.234756946563721	2.943047761917114	3.07229208946228	2.985002994537354	2.75469970703125	3.182256460189819	2.246508836746216	2.598700046539307	3.788454294204712	2.846084594726562	3.641080379486084	2.80353045463562	2.853371620178223	3.037733316421509	3.719990491867065	2.971010446548462	3.735367059707642
45	60	3.928057193756104	3.244479179382324	3.409205436706543	5.481041431427002	4.32148265838623	3.738337993621826	3.444430828094482	3.103116273880005	3.991731405258179	4.656810760498047	4.157314777374268	3.512187719345093	3.186259031295776	3.694353580474854	6.19933557510376	3.140812873840332	3.624265670776367	5.350739479064941	4.65265941619873	2.565576076507568	3.946578741073608	3.833915710449219	4.970833301544189	5.221138477325439	5.525154113769531	4.501152515411377	3.856353998184204	2.790480852127075	3.395661115646362	4.120503425598145	4.046683788299561	7.138397216796875	4.097299575805664	3.299937725067139	5.263825416564941	4.088958740234375	6.375702857971191	3.59149432182312	4.070615768432617	4.520339488983154	3.642573356628418	5.203795433044434	4.948890209197998	4.149274349212646	5.823065757751465	4.324288845062256	4.177792549133301	4.413233757019043	5.186471939086914	5.035059452056885	4.023311614990234	4.502351760864258	5.62030553817749	4.831827163696289	4.910745143890381	4.268378257751465	4.795617580413818	5.310120105743408	4.189994335174561	4.694509029388428	5.201194763183594	4.901062965393066	4.546793937683105	5.948586463928223	3.740494728088379	5.023508071899414	4.981898784637451	4.49089241027832	4.460734844207764	4.261932373046875	6.0702223777771	5.653014183044434	4.194841384887695	4.744650840759277	4.093777179718018	5.45647144317627	5.270936965942383	4.590706348419189	5.313851356506348	4.63812255859375	4.132212162017822	3.323044538497925	5.046692848205566	4.865451812744141	4.625439643859863	3.949642658233643	4.688015460968018	4.874358654022217	4.470699310302734	4.654186725616455	4.901452541351318	4.883305072784424	4.30945348739624	4.878745555877686	4.762120723724365	5.067370414733887	4.611812591552734	4.586201667785645	3.182430267333984	5.562149524688721	4.884666919708252	5.339576244354248
60	75	5.423832893371582	4.280549049377441	4.775832176208496	7.542091369628906	5.332621097564697	4.498045921325684	5.348748207092285	3.371227502822876	5.383795261383057	5.052135467529297	4.440937519073486	4.167593002319336	4.994589805603027	6.319256782531738	7.071736335754395	4.223347663879395	4.324666976928711	7.213686466217041	6.002894401550293	4.057929992675781	5.12939977645874	4.998678207397461	5.070734024047852	5.3531494140625	5.868189334869385	4.946679592132568	6.25051736831665	3.7876296043396	4.652779102325439	5.831374645233154	5.909002780914307	8.945398330688477	5.642583847045898	5.305978298187256	6.445586204528809	5.103940963745117	7.359943866729736	5.36109733581543	5.318393707275391	5.801061153411865	5.243072032928467	7.203507423400879	7.218398571014404	5.390547275543213	6.895259380340576	5.961148262023926	5.350143432617188	5.708390235900879	7.571248054504395	6.11679744720459	5.440178394317627	6.553508758544922	7.545951366424561	5.741292953491211	6.521387100219727	6.250206470489502	6.187139511108398	5.597160816192627	5.617181777954102	5.672800540924072	6.628089904785156	6.75581693649292	6.305216312408447	7.705617904663086	4.643284797668457	6.622433185577393	6.804732322692871	5.863332748413086	4.626702308654785	6.097358703613281	7.45083475112915	6.98365592956543	5.817079067230225	5.904588222503662	5.719020366668701	6.659772396087646	6.793879985809326	6.269896984100342	7.4898362159729	5.356748580932617	5.247213840484619	4.998528003692627	5.784071445465088	6.146294116973877	5.210075855255127	6.187999248504639	7.819421291351318	6.075422286987305	5.577022552490234	5.909029960632324	5.870617866516113	5.783385753631592	6.02448844909668	6.249760150909424	6.22181224822998	6.420751571655273	5.878579616546631	4.932419776916504	6.881523132324219	6.657442092895508	5.811665534973145	7.417071342468262
75	90	7.454447269439697	5.697249412536621	6.064033031463623	8.892682075500488	7.450321197509766	5.319035053253174	7.416081428527832	7.393068790435791	6.628223896026611	7.599198818206787	5.993094921112061	5.333681106567383	4.40843391418457	6.789221286773682	9.087469100952148	5.554580688476562	5.536746501922607	9.665914535522461	7.111025333404541	6.097177505493164	7.734671115875244	4.722393035888672	6.521023273468018	8.26849365234375	5.889986515045166	6.694395542144775	9.294535636901855	4.92291784286499	6.117537975311279	7.478123188018799	6.178493976593018	11.22886085510254	7.424051761627197	8.226190567016602	7.480420589447021	7.4360671043396	9.832919120788574	5.83359432220459	7.637402057647705	7.738332748413086	7.603086948394775	9.566619873046875	9.792340278625488	7.146070957183838	8.805265426635742	8.096219062805176	8.121566772460938	6.759963989257812	9.007774353027344	8.415449142456055	8.142292022705078	8.164469718933105	8.777448654174805	8.621635437011719	6.134402751922607	8.018675804138184	7.990909099578857	7.872999668121338	7.861485004425049	7.716887474060059	8.87907600402832	8.402582168579102	8.185418128967285	6.37501859664917	6.644495010375977	10.87072277069092	8.000636100769043	6.492010116577148	7.036852836608887	6.842989921569824	10.18299198150635	7.09779167175293	7.453990459442139	7.877469062805176	7.373539924621582	9.268268585205078	8.469306945800781	7.473912239074707	10.54122257232666	7.564291000366211	7.395888328552246	6.324061393737793	7.981498718261719	7.77049732208252	7.573302745819092	7.767813682556152	9.390497207641602	8.498193740844727	7.214657783508301	7.639699459075928	7.971887111663818	7.873251438140869	7.302340030670166	8.152433395385742	7.929662704467773	8.546723365783691	8.638786315917969	8.700665473937988	6.820273876190186	9.772211074829102	8.777382850646973	9.365479469299316
90	105	8.454900741577148	7.053170680999756	6.946249961853027	11.33688640594482	9.411468505859375	5.89098072052002	8.692893028259277	8.316583633422852	8.60231876373291	9.52315616607666	9.089040756225586	6.445321559906006	6.863017559051514	8.334386825561523	12.00328254699707	7.023434638977051	7.758174896240234	11.26685619354248	9.422658920288086	6.395740509033203	8.347278594970703	6.223025321960449	7.772111415863037	8.387654304504395	7.245400428771973	8.756214141845703	10.48270511627197	6.000732898712158	7.825698852539062	9.954516410827637	8.894199371337891	13.47087383270264	9.011150360107422	9.664240837097168	9.20552921295166	9.437870979309082	12.21686363220215	9.470184326171875	9.20366096496582	9.739588737487793	8.651432037353516	10.51344585418701	11.27183723449707	9.444779396057129	11.98691844940186	8.870199203491211	8.811973571777344	8.792577743530273	12.84137916564941	9.833598136901855	9.151107788085938	10.96681690216064	12.35614013671875	9.997501373291016	9.689704895019531	9.618863105773926	10.04365348815918	9.664761543273926	9.325331687927246	9.883231163024902	10.77161884307861	10.46268367767334	10.02867412567139	9.136460304260254	8.291601181030273	11.9801082611084	9.921708106994629	10.462082862854	9.890937805175781	9.878872871398926	11.68670654296875	10.99628067016602	9.509219169616699	9.682571411132812	8.913800239562988	10.2945556640625	10.6696081161499	9.337045669555664	10.80861377716064	9.122312545776367	9.183297157287598	6.95515251159668	8.600017547607422	8.738152503967285	9.296174049377441	9.019704818725586	13.15084934234619	9.816176414489746	9.201719284057617	9.611618041992188	10.13857364654541	9.005703926086426	9.881618499755859	9.842784881591797	10.52238845825195	11.42916774749756	9.9237060546875	9.945602416992188	7.073785305023193	9.220627784729004	9.626323699951172	11.38152933120728
105	120	10.7293529510498	8.299712181091309	8.068214416503906	12.55628299713135	11.14968872070312	8.336296081542969	11.2645902633667	9.435977935791016	9.583892822265625	10.21718692779541	10.46885108947754	7.639616966247559	8.23265266418457	9.640917778015137	11.35304164886475	8.231938362121582	8.369625091552734	13.29720306396484	11.83115196228027	8.16831111907959	9.444314002990723	10.16472816467285	10.01373100280762	7.211930274963379	9.304752349853516	9.160529136657715	13.31232738494873	7.484988689422607	9.22622013092041	13.05650615692139	9.484807968139648	15.33419990539551	10.61840629577637	9.902083396911621	11.78609657287598	10.92796993255615	15.21316814422607	10.64229583740234	10.15548515319824	10.96398830413818	10.47753810882568	12.92412757873535	13.60733032226562	10.91275119781494	13.44872093200684	10.65275955200195	10.7538480758667	8.310893058776855	13.60176753997803	11.41970920562744	9.466270446777344	11.35599327087402	13.64772415161133	11.70553684234619	9.390069007873535	10.82730865478516	10.64815235137939	10.9705171585083	11.76724052429199	11.45808696746826	13.2980260848999	12.19449996948242	11.87450790405273	11.02628231048584	8.02788257598877	13.44399547576904	11.70781135559082	10.48265743255615	8.859017372131348	11.72762203216553	14.24157619476318	9.563736915588379	10.9175329208374	11.54399013519287	10.24967861175537	11.33598136901855	12.78050899505615	9.936810493469238	15.19701480865479	11.37441444396973	9.879459381103516	9.217835426330566	11.22532939910889	10.78349685668945	11.41268253326416	10.78921031951904	13.21553039550781	12.21298122406006	10.46299076080322	11.65903091430664	11.85883712768555	11.67830753326416	11.18257713317871	11.5972261428833	12.76502227783203	12.004469871521	11.36891460418701	12.21725463867188	8.366182327270508	12.86264133453369	11.06877613067627	13.02612686157227
120	135	10.60445976257324	9.040724754333496	9.274502754211426	14.43428230285645	10.68446922302246	8.503453254699707	11.32793235778809	10.10029983520508	9.890388488769531	10.61435413360596	11.63890266418457	8.364651679992676	9.561399459838867	9.807478904724121	13.15053558349609	8.979772567749023	8.669618606567383	14.81450939178467	11.30509471893311	8.011353492736816	10.74040126800537	9.752592086791992	10.93154335021973	10.56209659576416	12.02948760986328	8.492443084716797	16.45894050598145	8.054971694946289	10.53802394866943	10.10122966766357	9.119697570800781	16.28100204467773	12.16457748413086	10.74763679504395	11.15092468261719	11.74701976776123	16.64599609375	11.15719985961914	11.62477684020996	12.65150737762451	10.42897701263428	13.60691738128662	15.11793041229248	11.62651634216309	15.09362983703613	9.897065162658691	11.15740585327148	8.113310813903809	14.1699275970459	13.79161643981934	10.8469123840332	13.72036838531494	15.58035087585449	13.98000717163086	9.499125480651855	12.63488864898682	12.63114833831787	11.46260643005371	12.95998382568359	13.07689189910889	13.64497566223145	11.75822257995605	12.52238845825195	11.68405246734619	8.818415641784668	16.46305274963379	11.26793003082275	14.13325500488281	10.53047275543213	12.56655693054199	16.43068695068359	11.60423564910889	11.04091739654541	11.89938449859619	10.83836078643799	13.23262214660645	15.08654308319092	11.25424003601074	14.39646530151367	12.13430595397949	11.82143783569336	9.264447212219238	10.91659545898438	11.48269462585449	12.60438346862793	12.59204578399658	14.40689468383789	13.00010013580322	11.76246356964111	13.73383331298828	13.47697067260742	11.45395565032959	12.36812591552734	12.95181941986084	13.45377254486084	13.34567260742188	13.47199630737305	11.28784275054932	9.726304054260254	10.23130989074707	11.55611610412598	14.97477245330811
135	150	11.19845676422119	9.307863235473633	9.571660041809082	14.01610469818115	11.19388294219971	10.50050163269043	10.43163013458252	8.921414375305176	9.267265319824219	9.660405158996582	9.917038917541504	7.529013156890869	8.841794013977051	9.162639617919922	11.14711284637451	9.254608154296875	9.123504638671875	14.38692283630371	11.44701099395752	7.545414924621582	10.69094085693359	7.54852294921875	8.897599220275879	9.740202903747559	11.36436462402344	9.218240737915039	11.89027500152588	8.036220550537109	10.96721363067627	13.08557224273682	9.88597583770752	15.29838466644287	12.53735446929932	12.64032459259033	9.834111213684082	14.16577529907227	16.75968551635742	9.335343360900879	11.15494728088379	13.68790245056152	11.08201885223389	15.23939514160156	15.26767253875732	11.8690767288208	14.61471652984619	9.583870887756348	12.38955879211426	9.718628883361816	13.79733943939209	13.49218273162842	12.18043327331543	12.4013204574585	16.40185356140137	13.49824237823486	12.13008117675781	13.02472496032715	13.26222038269043	10.99594688415527	12.38429069519043	12.50491428375244	14.71006393432617	12.47776222229004	12.78835868835449	11.22908496856689	9.38884162902832	13.38038921356201	10.65641212463379	11.93414783477783	10.10184955596924	13.36407375335693	14.02912330627441	10.105055809021	11.23392295837402	13.37710952758789	11.36615467071533	12.66955280303955	14.9181022644043	11.43703174591064	14.29685688018799	11.32052135467529	12.5413703918457	9.727790832519531	11.4206485748291	12.22604179382324	11.89031982421875	12.26033020019531	14.5588493347168	12.93589210510254	10.70592403411865	13.31380176544189	13.66167831420898	10.93622970581055	13.1766471862793	12.66202354431152	13.65419769287109	12.89440250396729	13.51681518554688	10.14786148071289	9.779536247253418	12.39799976348877	12.46407508850098	14.51883411407471
150	165	12.07032871246338	9.450066566467285	10.59601306915283	14.82877445220947	12.51657867431641	9.467851638793945	12.35337829589844	9.996444702148438	10.22737216949463	10.30890369415283	9.679014205932617	7.49672269821167	8.991535186767578	9.322515487670898	9.594532012939453	9.618556022644043	9.543754577636719	14.87613677978516	12.01214599609375	8.314903259277344	11.45380020141602	9.418853759765625	9.535201072692871	10.12416458129883	8.699317932128906	10.16066551208496	10.94149398803711	8.346639633178711	11.35692596435547	14.08964729309082	9.447905540466309	15.26808261871338	13.06301403045654	12.82150363922119	11.61289310455322	11.97961616516113	17.55695533752441	12.11135864257812	10.81226348876953	13.63747501373291	11.56290531158447	13.73874473571777	15.97084903717041	12.0001392364502	14.74518775939941	11.84671878814697	13.50774002075195	9.038285255432129	13.27119445800781	13.40642261505127	12.3126745223999	12.15347480773926	17.02590560913086	13.4725284576416	11.14579963684082	13.848876953125	13.08499813079834	10.776535987854	13.63822937011719	12.7648754119873	13.83489990234375	12.50864791870117	13.95265007019043	11.02040481567383	9.651674270629883	15.001051902771	11.94466400146484	11.37151622772217	10.96360015869141	13.653639793396	15.38262557983398	12.36543083190918	11.97481727600098	13.49874782562256	11.04091548919678	12.94538307189941	14.96137237548828	11.07912063598633	15.66300773620605	11.71476745605469	12.071044921875	10.07964897155762	12.05490684509277	12.00296878814697	13.54319286346436	13.27229690551758	13.98925399780273	13.38702011108398	11.45551681518555	13.7715482711792	13.84106540679932	11.79586601257324	13.50217437744141	13.63728904724121	13.84812450408936	13.59841823577881	13.94828033447266	12.26278591156006	7.890474796295166	14.39133739471436	11.28898334503174	15.2984561920166
165	180	12.30875682830811	9.795255661010742	10.02877902984619	14.68609142303467	12.34878158569336	8.282922744750977	14.23758029937744	9.571443557739258	9.117061614990234	8.509677886962891	8.594061851501465	7.199759006500244	6.291903495788574	10.78825664520264	12.86919784545898	9.823488235473633	10.04853248596191	14.4847469329834	10.88554000854492	9.169334411621094	12.85840034484863	12.20300197601318	10.92449283599854	8.694514274597168	11.10699558258057	10.04771137237549	15.09740161895752	8.191576957702637	11.50937461853027	12.7843542098999	9.554518699645996	14.48995685577393	13.06557178497314	13.36583709716797	9.914146423339844	12.27658843994141	16.01428413391113	8.722223281860352	12.04070949554443	13.76164150238037	11.87506675720215	12.5256404876709	15.10827732086182	12.12259483337402	15.08307933807373	10.85012340545654	12.09107303619385	9.749419212341309	12.99683856964111	14.23375034332275	14.82831001281738	12.57734680175781	16.58259201049805	14.27847480773926	12.30761051177979	13.45705795288086	13.36494731903076	10.16796207427979	14.26693153381348	13.15078735351562	14.43265724182129	12.8112325668335	14.24285888671875	12.15047454833984	9.711654663085938	16.77214050292969	10.88114547729492	14.73529720306396	10.09651565551758	14.28244018554688	15.16544151306152	10.19475746154785	12.75832080841064	13.48227310180664	11.17240524291992	13.78037261962891	15.83403301239014	11.58760452270508	14.89103698730469	10.91181659698486	12.13301181793213	10.42876243591309	12.82644653320312	12.93003177642822	12.51749801635742	12.86666774749756	15.52781105041504	13.01843070983887	11.67315292358398	13.1259708404541	12.99420070648193	11.06230354309082	13.58355522155762	13.21945762634277	14.55962944030762	12.28864192962646	13.1241397857666	11.18653774261475	11.10827255249023	16.30033683776855	11.60156917572021	15.13764762878418
180	195	11.70963954925537	9.999805450439453	9.701938629150391	14.28887939453125	11.97568702697754	9.147907257080078	13.15900230407715	12.01574993133545	10.25338363647461	9.587680816650391	9.366745948791504	7.215060710906982	8.862103462219238	9.707393646240234	10.97964000701904	9.973942756652832	10.07774543762207	14.82482147216797	12.8492374420166	7.688133239746094	10.76111316680908	10.37268257141113	10.61342906951904	9.432914733886719	8.763331413269043	11.21016407012939	10.47199821472168	8.23231029510498	11.59189891815186	13.24921321868896	10.57660102844238	14.33367538452148	13.08990955352783	13.14392852783203	10.55957984924316	12.92615413665771	16.36422920227051	10.20713424682617	11.87192821502686	13.52926731109619	11.30317878723145	10.74921131134033	15.17076969146729	12.00169658660889	14.4228401184082	11.70222187042236	13.27544784545898	8.869757652282715	15.9774808883667	13.869215965271	14.05238723754883	12.73630905151367	14.74946880340576	14.06805324554443	11.11784362792969	14.10618114471436	13.74104595184326	11.28945827484131	13.95211887359619	13.96908950805664	14.97617721557617	13.31601142883301	14.21154403686523	14.37436962127686	9.974420547485352	12.32295989990234	11.53305721282959	14.3795804977417	11.17741584777832	14.23310375213623	16.23815727233887	11.86389064788818	11.96882820129395	14.13061237335205	12.6990909576416	12.41863441467285	15.37491416931152	11.60071277618408	15.31690883636475	11.63366794586182	13.40521144866943	11.5619421005249	12.24284172058105	13.14852142333984	13.50746250152588	13.26964473724365	15.86218547821045	14.52914619445801	12.48670864105225	13.37092685699463	13.41763019561768	11.09110736846924	14.4754467010498	12.69612216949463	14.73598861694336	13.33396053314209	13.56555557250977	13.62791442871094	9.888126373291016	14.45737361907959	11.08855438232422	15.11833333969116
195	210	13.33333396911621	10.07154655456543	9.933620452880859	14.34033679962158	13.4862699508667	11.66649150848389	13.73558807373047	11.08217525482178	9.174704551696777	8.361181259155273	8.711435317993164	7.476763725280762	9.953239440917969	10.33638477325439	11.00943851470947	10.22560119628906	10.53952693939209	14.97100162506104	10.72222518920898	9.237112998962402	13.6499195098877	12.8479175567627	10.55305004119873	10.28573036193848	12.75100994110107	10.21889019012451	11.151611328125	8.201784133911133	11.787766456604	12.26582050323486	9.476107597351074	14.2002477645874	13.23448371887207	12.98446178436279	10.97240161895752	12.95940780639648	15.53693008422852	10.1282262802124	11.63954067230225	14.29998397827148	11.75017547607422	12.82795715332031	15.8881950378418	11.42628479003906	15.27733898162842	13.23270797729492	13.63449192047119	9.959938049316406	13.27262592315674	13.157395362854	13.66645812988281	13.27969551086426	15.32474231719971	14.52664089202881	10.85558891296387	14.57846260070801	13.30418586730957	11.08336067199707	13.95724391937256	13.52681732177734	15.33938980102539	13.12593841552734	15.01297473907471	14.13932704925537	10.27085494995117	13.48721408843994	12.82376003265381	13.38999176025391	12.38292503356934	14.18802165985107	14.40073013305664	8.799121856689453	12.15195941925049	13.84639835357666	12.3832483291626	12.8606538772583	16.30466461181641	12.40591335296631	14.88326740264893	11.94897079467773	12.47853851318359	11.44914722442627	13.20853900909424	12.98921489715576	13.37550735473633	13.81472778320312	14.86283683776855	14.1630277633667	13.37367630004883	13.88882255554199	14.2657642364502	12.99333477020264	14.44607353210449	13.25118732452393	14.4744987487793	13.42977714538574	14.220703125	13.73982810974121	10.17888069152832	16.67158126831055	11.40765476226807	15.24157524108887
210	225	11.91674518585205	10.27935886383057	11.35351753234863	14.65678119659424	13.65146541595459	9.243656158447266	11.90011692047119	14.30404663085938	10.03165054321289	10.10762405395508	9.863712310791016	6.840662956237793	12.39119529724121	9.447408676147461	9.97900390625	10.10140419006348	9.851204872131348	14.7703218460083	11.19897174835205	7.810164451599121	13.15761852264404	10.9968900680542	10.53585910797119	7.437923431396484	14.82098197937012	10.03553867340088	9.748275756835938	8.226812362670898	11.79392242431641	12.32164096832275	9.67955493927002	14.20359516143799	13.33557891845703	12.39043140411377	10.89244174957275	13.14785003662109	15.75499153137207	9.559141159057617	11.78252983093262	13.70928382873535	12.32351684570312	13.6176929473877	15.95144844055176	12.77464294433594	16.14890670776367	12.91136455535889	12.94925689697266	8.71635627746582	14.82043266296387	14.62554264068604	12.34816455841064	14.05222702026367	16.89780235290527	14.45284080505371	11.27348327636719	13.72329807281494	13.53544330596924	11.41301822662354	14.74915027618408	13.25256443023682	14.97028827667236	13.1032133102417	14.23579883575439	15.08288097381592	9.578756332397461	15.19580554962158	11.82552242279053	14.45029640197754	12.33541393280029	12.34625244140625	17.45727157592773	9.835635185241699	11.11945247650146	14.67038345336914	11.9641170501709	10.96008396148682	16.20822334289551	12.13007545471191	15.24409198760986	12.25250244140625	13.31361389160156	9.906979560852051	13.20190715789795	14.63344573974609	13.716064453125	14.03523254394531	14.19149875640869	14.55792713165283	10.72354888916016	13.48738956451416	13.39205741882324	11.73081302642822	14.16795253753662	13.98642253875732	14.72534656524658	13.18370914459229	14.59720611572266	13.10752105712891	10.28169250488281	14.94549942016602	12.66052055358887	15.24339723587036
