frame_start	frame_end	highbinding	left_cerebral_white_matter	left_cerebellum_white_matter	left_cerebellum_cortex	left_thalamus	left_caudate	left_putamen	left_pallidum	brain_stem	left_hippocampus	left_amygdala	csf	left_accumbens_area	left_ventraldc	left_choroid_plexus	right_cerebral_white_matter	right_cerebellum_white_matter	right_cerebellum_cortex	right_thalamus	right_caudate	right_putamen	right_pallidum	right_hippocampus	right_amygdala	right_accumbens_area	right_ventraldc	right_choroid_plexus	aircavity	skull	vermis	pons	csf_extracerebral	head_extracerebral	ctx_lh_bankssts	ctx_lh_caudalanteriorcingulate	ctx_lh_caudalmiddlefrontal	ctx_lh_cuneus	ctx_lh_entorhinal	ctx_lh_fusiform	ctx_lh_inferiorparietal	ctx_lh_inferiortemporal	ctx_lh_isthmuscingulate	ctx_lh_lateraloccipital	ctx_lh_lateralorbitofrontal	ctx_lh_lingual	ctx_lh_medialorbitofrontal	ctx_lh_middletemporal	ctx_lh_parahippocampal	ctx_lh_paracentral	ctx_lh_parsopercularis	ctx_lh_parsorbitalis	ctx_lh_parstriangularis	ctx_lh_pericalcarine	ctx_lh_postcentral	ctx_lh_posteriorcingulate	ctx_lh_precentral	ctx_lh_precuneus	ctx_lh_rostralanteriorcingulate	ctx_lh_rostralmiddlefrontal	ctx_lh_superiorfrontal	ctx_lh_superiorparietal	ctx_lh_superiortemporal	ctx_lh_supramarginal	ctx_lh_frontalpole	ctx_lh_temporalpole	ctx_lh_transversetemporal	ctx_lh_insula	ctx_rh_bankssts	ctx_rh_caudalanteriorcingulate	ctx_rh_caudalmiddlefrontal	ctx_rh_cuneus	ctx_rh_entorhinal	ctx_rh_fusiform	ctx_rh_inferiorparietal	ctx_rh_inferiortemporal	ctx_rh_isthmuscingulate	ctx_rh_lateraloccipital	ctx_rh_lateralorbitofrontal	ctx_rh_lingual	ctx_rh_medialorbitofrontal	ctx_rh_middletemporal	ctx_rh_parahippocampal	ctx_rh_paracentral	ctx_rh_parsopercularis	ctx_rh_parsorbitalis	ctx_rh_parstriangularis	ctx_rh_pericalcarine	ctx_rh_postcentral	ctx_rh_posteriorcingulate	ctx_rh_precentral	ctx_rh_precuneus	ctx_rh_rostralanteriorcingulate	ctx_rh_rostralmiddlefrontal	ctx_rh_superiorfrontal	ctx_rh_superiorparietal	ctx_rh_superiortemporal	ctx_rh_supramarginal	ctx_rh_frontalpole	ctx_rh_temporalpole	ctx_rh_transversetemporal	ctx_rh_insula	reference
0	15	0	0	0	0	0	0	0	0	0	0	0	0	0	0	0	0	0	0	0	0	0	0	0	0	0	0	0	0	0	0	0	0	0	0	0	0	0	0	0	0	0	0	0	0	0	0	0	0	0	0	0	0	0	0	0	0	0	0	0	0	0	0	0	0	0	0	0	0	0	0	0	0	0	0	0	0	0	0	0	0	0	0	0	0	0	0	0	0	0	0	0	0	0	0	0	0	0	0	0	0	0	0
15	30	0.22669842839241	0.1840798109769821	0.2210988253355026	0.2334476411342621	0.372763067483902	0.209921196103096	0.169298842549324	0.03077849932014942	0.267998993396759	0.643398642539978	0.2741278409957886	0.1719610840082169	0.2420673221349716	0.3776282668113708	0.08512194454669952	0.1972573697566986	0.1711457073688507	0.2570213675498962	0.2158238440752029	0.1321210265159607	0.2174316197633743	0.2880205810070038	0.2216258198022842	0.5496110916137695	0.2382570505142212	0.2940723598003387	0.6099324822425842	0.1723114550113678	0.1219430789351463	0.1887964606285095	0.2441383600234985	0.3394222259521484	0.1470956653356552	0.2741869688034058	0.5580054521560669	0.2469563186168671	0.3390224277973175	0.126282200217247	0.3126915693283081	0.2392819076776505	0.208117201924324	0.2968875765800476	0.1776735484600067	0.2196012586355209	0.2990926206111908	0.3615453243255615	0.2140551805496216	0.3262575566768646	0.1893881410360336	0.5985023379325867	0.2707974016666412	0.295004665851593	0.4366257786750793	0.1988763809204102	0.1649691611528397	0.2857889831066132	0.303094357252121	0.2242769002914429	0.2802452743053436	0.2659065425395966	0.2634206116199493	0.3262129127979279	0.3947548270225525	0.08979294449090958	0.2890013754367828	0.3236052393913269	0.570502758026123	0.2079224288463593	0.246307373046875	0.2830089330673218	0.291285514831543	0.1369774490594864	0.2078935354948044	0.2472871243953705	0.2912490665912628	0.2457403987646103	0.2338669300079346	0.3413423001766205	0.3645675778388977	0.3670462667942047	0.2334717214107513	0.2846894860267639	0.2559831440448761	0.4021827876567841	0.3237583339214325	0.3966360688209534	0.2002403438091278	0.2555052936077118	0.2397625744342804	0.3545178472995758	0.3020062446594238	0.5131068229675293	0.3102980852127075	0.280590832233429	0.326739639043808	0.36810302734375	0.2991290986537933	0.1751090586185455	0.1344503313302994	0.5037826299667358	0.2282771915197372	0.245553158223629
30	45	2.074275255203247	1.549012899398804	1.831335306167603	2.497397899627686	2.089337110519409	1.531336069107056	2.393537044525146	2.053079128265381	2.299143314361572	3.190952062606812	2.146206617355347	2.372827291488647	2.464406728744507	2.389542579650879	2.995099544525146	1.594804048538208	1.827381730079651	2.782700061798096	2.424355983734131	1.432169556617737	2.042180299758911	1.372294068336487	2.422529458999634	2.959496021270752	2.337289571762085	2.429608821868896	2.46897554397583	1.5255047082901	1.371947169303894	2.722541093826294	2.462851047515869	3.621591091156006	1.723154425621033	1.874095797538757	3.0804762840271	2.171855688095093	3.24953556060791	3.005880117416382	2.068758487701416	2.375703096389771	2.217221736907959	3.157027721405029	2.215755224227905	1.889404773712158	3.177635908126831	2.283255338668823	2.544999599456787	2.117469549179077	2.627610445022583	2.519043445587158	2.169468641281128	2.216331481933594	2.631760120391846	2.371647596359253	1.747324228286743	2.494186401367188	2.369207382202148	1.972184419631958	2.146321773529053	2.466157674789429	2.04068922996521	2.977649927139282	2.533803701400757	1.457582354545593	1.357340455055237	3.503565311431885	2.166715383529663	1.507949233055115	1.979600429534912	2.172676801681519	2.874661445617676	5.013092994689941	1.981137275695801	2.211051464080811	2.318817138671875	3.167091846466064	2.285313367843628	2.167695999145508	2.874080896377563	2.335919857025146	2.109496355056763	2.153715848922729	2.166198015213013	2.481568574905396	1.913995385169983	2.609902381896973	2.333511590957642	2.29859185218811	2.33177375793457	2.306906461715698	2.668127775192261	2.63838529586792	2.064542055130005	2.219622135162354	2.31751823425293	2.875731229782104	2.592283248901367	2.064374685287476	2.184463500976562	2.346091032028198	2.725428581237793	2.630151867866516
45	60	4.249754905700684	3.34898042678833	3.284045219421387	5.180657863616943	4.670443534851074	3.491275072097778	4.074641227722168	2.852386474609375	4.538311958312988	4.846384525299072	5.686266422271729	4.438283920288086	4.851434707641602	4.322843074798584	6.454402446746826	3.300864934921265	3.781636953353882	5.892193794250488	4.141152381896973	4.238874435424805	3.961650133132935	3.700126647949219	4.007864475250244	4.598798274993896	3.932024240493774	3.811961650848389	6.893519878387451	3.343806505203247	3.188822031021118	5.800819873809814	4.931299686431885	7.114209651947021	3.976101160049438	4.353113174438477	5.050808429718018	4.583682060241699	6.83083963394165	4.343887329101562	4.305747509002686	4.642579078674316	4.982833862304688	5.857955455780029	4.679099082946777	4.188613414764404	6.198580741882324	4.388791084289551	4.991046905517578	4.876362323760986	5.607404232025146	5.561703205108643	5.307252407073975	5.157564640045166	5.449662685394287	5.606757640838623	5.87327766418457	4.754039287567139	5.430814266204834	5.219412803649902	4.905765056610107	5.009734153747559	4.513433456420898	6.055647850036621	5.213276386260986	4.910737037658691	3.283204078674316	5.040625095367432	4.600071907043457	4.173702716827393	5.291539192199707	4.620388031005859	5.563823223114014	7.284174919128418	4.27263069152832	4.38447093963623	4.682980537414551	5.910075664520264	5.29496955871582	4.495193004608154	6.015586853027344	4.3412766456604	4.716092109680176	4.527854442596436	5.145842552185059	5.67912769317627	3.569655418395996	5.06388521194458	5.883538246154785	5.09967041015625	5.447517871856689	5.295395851135254	4.858559131622314	5.565399646759033	4.53958797454834	4.906463623046875	5.241742134094238	5.602777004241943	4.762195587158203	4.502372264862061	4.033686637878418	7.435582160949707	5.18052339553833	5.59101676940918
60	75	6.228654384613037	5.206978797912598	6.032666683197021	8.498867034912109	7.43397045135498	5.901046752929688	5.682702541351318	6.036282539367676	6.986537456512451	7.896320343017578	6.195196151733398	7.146113872528076	4.36263370513916	6.500857830047607	8.223170280456543	5.405753135681152	5.753401279449463	9.546154022216797	6.937074661254883	5.074373245239258	5.533621311187744	4.855959415435791	7.102718353271484	6.835822582244873	5.433124542236328	6.444058895111084	10.42576026916504	5.394619464874268	5.266956806182861	9.495094299316406	6.673068046569824	10.74723625183105	6.525111675262451	7.280488014221191	8.230737686157227	7.1709303855896	9.552254676818848	7.516529083251953	6.797430992126465	7.7478928565979	7.087111949920654	8.889801979064941	7.444310665130615	6.703635215759277	9.430601119995117	8.087003707885742	7.224445343017578	6.801195621490479	7.020242691040039	8.337075233459473	8.020960807800293	7.639931678771973	9.87260913848877	8.068204879760742	6.750620365142822	7.666357517242432	8.24069881439209	8.843073844909668	7.529070854187012	7.647114753723145	7.520618438720703	8.233067512512207	7.578796863555908	9.024616241455078	3.794732332229614	9.056732177734375	7.117368221282959	7.451449871063232	6.842840671539307	6.712186336517334	11.06106758117676	10.36472702026367	7.255661487579346	7.323849201202393	6.683032512664795	7.39838695526123	8.750208854675293	6.715319633483887	9.237361907958984	5.944891452789307	7.307504177093506	8.041197776794434	8.433966636657715	8.133458137512207	6.673659324645996	9.124308586120605	8.354591369628906	8.112184524536133	7.678566455841064	8.061288833618164	7.780364990234375	7.104230880737305	7.790252685546875	7.99634313583374	7.58305025100708	8.647204399108887	7.767232418060303	6.521191120147705	7.302280426025391	8.094857215881348	7.399507522583008	9.185979843139648
75	90	8.073757171630859	6.860572814941406	7.229933738708496	10.29918384552002	9.069390296936035	6.104841232299805	8.263830184936523	6.589968681335449	7.333704948425293	9.049827575683594	7.231064319610596	7.791424751281738	9.443203926086426	6.487512588500977	13.7755651473999	6.844722747802734	7.348230361938477	11.44428253173828	8.87917423248291	6.115376472473145	8.008707046508789	8.095416069030762	9.900832176208496	10.69027709960938	6.917228221893311	8.430153846740723	9.447602272033691	7.03079080581665	6.817992210388184	11.97771072387695	7.581737995147705	12.26256275177002	8.758090019226074	9.082474708557129	8.979756355285645	8.909640312194824	13.10067653656006	9.441322326660156	8.42221736907959	9.342397689819336	8.70634937286377	10.28092765808105	10.45196533203125	7.568113803863525	12.2291316986084	9.170317649841309	9.914961814880371	7.113611698150635	9.711492538452148	9.725293159484863	8.958892822265625	8.629851341247559	12.09935188293457	10.45184803009033	9.164065361022949	9.375880241394043	9.558893203735352	8.291581153869629	9.388947486877441	9.405245780944824	9.851375579833984	10.77732181549072	10.02163791656494	8.756195068359375	6.059387683868408	11.25334644317627	9.218178749084473	8.488163948059082	8.459231376647949	9.537106513977051	12.90454006195068	13.02738189697266	8.654872894287109	9.652774810791016	8.828364372253418	9.268061637878418	10.55223560333252	9.2474365234375	11.90922355651855	6.882366180419922	8.56017017364502	7.616435050964355	9.864246368408203	11.03719806671143	8.847931861877441	10.50871562957764	10.2136926651001	9.835164070129395	9.276523590087891	10.3001127243042	10.01290512084961	8.417244911193848	9.501328468322754	9.788511276245117	10.11470603942871	10.67081260681152	9.623674392700195	7.819898128509521	8.102553367614746	9.680536270141602	9.240077972412109	11.13368797302246
90	105	9.848611831665039	9.100109100341797	9.35358715057373	13.56799125671387	11.6076717376709	7.718669414520264	9.417203903198242	9.94041919708252	10.01628303527832	11.90547180175781	9.544442176818848	10.67358112335205	10.00632858276367	9.66227912902832	10.73511600494385	9.274377822875977	10.12180328369141	15.04132747650146	10.90841197967529	8.099869728088379	9.81226634979248	9.173998832702637	10.08473491668701	9.54575252532959	8.488663673400879	9.990981101989746	14.76032161712646	9.467794418334961	9.219744682312012	15.79430294036865	10.93239974975586	15.82529926300049	11.75192165374756	10.87853050231934	11.86782360076904	11.74275970458984	18.6038932800293	13.3393497467041	11.82871341705322	11.73126125335693	12.11627674102783	14.52477359771729	12.20052242279053	11.64633846282959	15.70849227905273	12.02074337005615	12.67059707641602	10.94379234313965	11.38208866119385	14.14665985107422	12.03441143035889	12.6545524597168	15.1198673248291	14.64568138122559	12.63124370574951	13.71647262573242	12.99350547790527	11.83404922485352	12.17475700378418	12.59816837310791	12.99722003936768	14.00606918334961	13.22701072692871	11.56204891204834	10.01745319366455	14.15918350219727	12.11842632293701	12.46356105804443	8.982154846191406	11.4171781539917	16.02565002441406	12.8091402053833	11.95222187042236	12.73910045623779	12.01454830169678	14.20192909240723	14.7297830581665	10.98739242553711	16.24519157409668	10.24338626861572	11.34499835968018	10.70524120330811	12.22548675537109	14.49598026275635	11.96440505981445	12.48579883575439	15.64608860015869	13.19890403747559	10.36315059661865	12.85677623748779	13.07688331604004	11.27359580993652	12.3191385269165	13.16605186462402	13.80681800842285	14.1314697265625	13.48422908782959	10.62807464599609	12.54379558563232	16.1767692565918	13.12630367279053	14.64330387115479
105	120	11.74835205078125	10.35121250152588	10.251708984375	14.92564487457275	13.55690860748291	10.2470121383667	10.67821216583252	11.74372291564941	10.74229145050049	11.56725978851318	11.14306831359863	11.30076122283936	11.05432605743408	12.07473945617676	15.83550930023193	10.6382303237915	11.77961349487305	17.3720703125	12.23530292510986	9.791012763977051	11.9072322845459	12.41148471832275	11.74167442321777	11.02085304260254	11.65193176269531	11.36887741088867	16.51187324523926	10.80175018310547	10.83188915252686	18.27106475830078	10.12333869934082	17.69318771362305	14.00429916381836	12.77973175048828	13.08942699432373	13.38145065307617	18.64964866638184	16.4477710723877	12.59562301635742	14.71328353881836	12.51936531066895	12.67445373535156	15.50501823425293	12.05944919586182	17.304443359375	12.61955070495605	13.94672679901123	10.87251281738281	12.72677993774414	15.2514533996582	11.68857288360596	13.85980129241943	16.12973403930664	15.29842281341553	14.03656101226807	15.27759647369385	15.37382888793945	13.07975769042969	14.42807006835938	14.55029296875	14.6514778137207	15.07741641998291	15.17185497283936	14.28747081756592	9.35969066619873	16.93405151367188	12.50093173980713	15.43625640869141	12.8799295425415	14.48793506622314	19.71701240539551	17.16717147827148	13.05576705932617	14.34824848175049	13.38722991943359	13.87557220458984	15.77632904052734	12.132737159729	19.00298881530762	11.43354988098145	13.77248191833496	12.19960880279541	16.02555274963379	17.30776214599609	13.3195686340332	15.78449726104736	19.65194320678711	14.86731815338135	11.98823833465576	14.10177326202393	14.09532165527344	11.25142288208008	14.47836112976074	15.13680171966553	16.28051567077637	14.57791137695312	14.56396579742432	16.6457405090332	10.68912601470947	17.33586692810059	12.53914356231689	16.62887620925903
120	135	13.27879238128662	11.43441009521484	11.90413951873779	16.92165756225586	14.07144641876221	12.23310470581055	12.46045684814453	10.03139209747314	12.05659103393555	13.28623962402344	10.34705352783203	12.11514663696289	9.876072883605957	12.40952110290527	15.224853515625	11.47181129455566	12.50421619415283	18.76979637145996	13.36511039733887	9.627854347229004	13.19069576263428	9.090453147888184	12.84830379486084	13.61636734008789	10.42235946655273	11.23446846008301	17.1991024017334	11.82745933532715	11.85523700714111	18.12868881225586	10.96109294891357	18.71066665649414	15.64840221405029	15.72587013244629	13.82124137878418	14.50391578674316	19.3773021697998	15.68313789367676	14.28775501251221	15.45420932769775	14.3729362487793	14.56938076019287	17.55777168273926	13.69645118713379	18.63843536376953	12.49250984191895	16.14194107055664	13.45452499389648	13.90547752380371	16.73739814758301	15.27364730834961	14.52300453186035	18.60744857788086	17.02158164978027	12.35981273651123	16.54475975036621	16.98006820678711	13.2932596206665	15.21054935455322	15.88115978240967	16.17930793762207	16.84631538391113	16.16094589233398	13.89072132110596	10.16544628143311	13.48410511016846	13.53166198730469	15.0461483001709	11.53551006317139	15.02460765838623	22.5525074005127	20.41733741760254	14.35305690765381	16.94673156738281	13.29254817962646	15.40764999389648	19.30628967285156	14.55549716949463	19.7518424987793	12.90119647979736	14.05649852752686	13.9695930480957	14.96005249023438	16.89481925964355	14.90259552001953	16.83274459838867	19.94127655029297	16.88494491577148	14.98412895202637	16.49519538879395	15.92062473297119	13.08614063262939	15.9924783706665	16.41257286071777	17.3932056427002	16.62655639648438	15.38671493530273	13.64842224121094	13.89422130584717	21.90168380737305	15.54253673553467	18.42648029327393
135	150	13.3600549697876	11.20633888244629	12.22458076477051	17.15530967712402	14.42214679718018	10.04385375976562	12.88600158691406	10.92195415496826	12.09878635406494	11.54261875152588	10.05691146850586	12.27423763275146	9.357349395751953	10.52622890472412	14.77237701416016	11.4809398651123	11.94015979766846	19.11581993103027	13.65706157684326	11.06989192962646	13.45657444000244	10.01889038085938	9.871037483215332	12.42004203796387	9.449285507202148	10.66129779815674	14.58089733123779	12.39741992950439	12.24006175994873	17.69471168518066	11.53496074676514	16.8845157623291	16.51725387573242	13.01235485076904	11.03200244903564	15.65279483795166	18.59057807922363	11.24528694152832	14.12561702728271	15.61050796508789	14.03962421417236	14.28455257415771	16.95198059082031	12.72598934173584	17.4816780090332	11.05285739898682	15.13692378997803	10.27414608001709	16.01936912536621	16.60021781921387	14.2999439239502	15.08400249481201	19.4681568145752	16.10366630554199	13.05854606628418	16.090576171875	15.98497676849365	11.99833297729492	16.01446914672852	14.94747638702393	16.40221214294434	14.85518836975098	14.86478710174561	15.38369750976562	10.33980178833008	18.47898864746094	14.09830665588379	16.61333465576172	10.5404167175293	14.61940479278564	19.32871627807617	15.86149024963379	14.88501834869385	15.07002544403076	12.7350435256958	15.40783214569092	19.02360725402832	13.16144466400146	20.24005699157715	13.43116283416748	13.64756393432617	12.57888889312744	15.10153675079346	16.16992568969727	13.8397855758667	15.41865158081055	19.62561798095703	16.5472297668457	11.81013870239258	16.30157089233398	16.17685890197754	12.01385116577148	15.77801895141602	15.69039821624756	16.45763206481934	14.76140594482422	15.80189895629883	13.1265754699707	12.41929531097412	15.91797924041748	13.28280448913574	18.99937915802002
150	165	12.58464431762695	11.51850318908691	11.37310695648193	16.57955551147461	14.02310562133789	10.26517105102539	12.98337554931641	12.31747913360596	10.83104038238525	11.59248638153076	8.331027984619141	10.89390850067139	8.998538017272949	10.47935104370117	11.0875301361084	11.46036148071289	12.67660427093506	17.15865707397461	12.89705276489258	10.56597518920898	11.53617477416992	11.67061805725098	11.44340419769287	8.614676475524902	10.76673889160156	10.32337760925293	15.40908622741699	12.13044452667236	12.2608699798584	19.45598220825195	10.86704349517822	16.06331253051758	16.75751686096191	14.69462013244629	11.7185173034668	14.82962322235107	20.25512313842773	10.38733196258545	14.28273487091064	16.31085205078125	13.44214630126953	13.89507961273193	17.18019866943359	11.63292789459229	18.55887413024902	13.3057918548584	15.0781192779541	12.49544048309326	14.06814861297607	16.75496482849121	17.1885871887207	15.17968559265137	19.5090446472168	16.11539077758789	13.65753173828125	15.36468124389648	16.25415229797363	12.27671432495117	15.73766803741455	15.97470569610596	16.45172119140625	15.51642990112305	16.70064735412598	14.50004768371582	9.771245002746582	19.07501602172852	13.80622100830078	15.28661632537842	12.45874786376953	14.8540153503418	20.07804679870605	13.80706691741943	13.37145519256592	16.91152572631836	12.87494373321533	13.54662227630615	17.77211380004883	12.68785953521729	19.11340713500977	13.22076034545898	13.8073205947876	10.88714981079102	16.13930320739746	15.74775791168213	15.60894584655762	13.91341304779053	20.94721412658691	16.53397560119629	13.58692169189453	16.88858032226562	15.38434505462646	14.00749588012695	15.79414367675781	15.48789596557617	16.78106307983398	15.28294277191162	15.40767192840576	15.56640338897705	11.01955890655518	14.70633316040039	13.6003999710083	17.52954483032227
165	180	13.38407707214355	11.39798831939697	12.01284313201904	16.79168891906738	13.2771110534668	11.60240459442139	13.93445014953613	13.23711585998535	12.16833400726318	9.898904800415039	10.30990028381348	9.902053833007812	10.92950630187988	11.78415393829346	10.88099670410156	11.68019008636475	13.18970966339111	17.22922706604004	12.36840534210205	10.07523441314697	13.75336456298828	12.21777725219727	11.78811645507812	9.558018684387207	9.651050567626953	11.68106269836426	11.34244155883789	11.60304355621338	12.12114715576172	16.77496528625488	11.07704448699951	15.57188701629639	16.8464412689209	13.95509052276611	12.99042224884033	15.66166114807129	20.36573219299316	12.58846664428711	13.98605060577393	16.1975154876709	13.90057945251465	13.6770658493042	17.60629844665527	13.52381038665771	17.43382453918457	13.00151920318604	14.50671195983887	11.72611713409424	15.79403305053711	14.78668975830078	14.56085205078125	16.09638786315918	19.21777725219727	16.22947883605957	12.7268180847168	16.54336357116699	16.45520210266113	12.20508575439453	15.72637176513672	16.07302093505859	15.69060134887695	14.8668966293335	17.11508369445801	15.78765201568604	10.82953643798828	14.54872417449951	12.43424606323242	17.10013961791992	11.77030849456787	14.66730308532715	17.66377258300781	12.3204870223999	13.95028209686279	15.41191101074219	13.15957355499268	13.61005592346191	18.99171257019043	13.09646987915039	17.75604057312012	13.25891971588135	14.52581691741943	11.29548072814941	15.55130958557129	16.1655216217041	13.78908348083496	16.64809989929199	19.91478538513184	16.06741714477539	13.24601364135742	16.21800422668457	16.16486930847168	12.57169818878174	16.19674110412598	15.3340892791748	15.57233715057373	15.89752388000488	16.56523323059082	11.40818214416504	11.99265766143799	17.32495498657227	14.57664585113525	17.84151172637939
180	195	13.41432094573975	11.7171802520752	13.6497163772583	16.37775039672852	13.18485736846924	10.80705165863037	15.12554836273193	14.59698390960693	10.87226009368896	10.24125862121582	10.12504768371582	10.3031063079834	12.69508743286133	11.58870601654053	11.58582496643066	11.84428024291992	11.83961582183838	17.54943084716797	12.00005149841309	11.03042507171631	13.48142051696777	11.22597599029541	12.06676387786865	9.265870094299316	11.68024063110352	11.12388229370117	12.36254978179932	11.75114250183105	12.13222122192383	17.44680023193359	11.33831405639648	15.14489364624023	17.08228874206543	14.51755523681641	12.69359493255615	15.4707145690918	19.27977180480957	13.25757312774658	14.02342414855957	16.5394172668457	14.45116233825684	16.08841896057129	17.37108993530273	14.20639705657959	17.23289108276367	13.21986675262451	15.60847949981689	12.01298904418945	14.55039978027344	16.70407485961914	14.95394134521484	18.74088287353516	19.70150375366211	16.11469841003418	13.66609954833984	15.82812213897705	15.0514612197876	11.77539825439453	15.67188930511475	16.37067413330078	15.84496021270752	15.8990592956543	16.27460479736328	15.24528503417969	10.59748363494873	15.04670429229736	13.88463497161865	19.01927757263184	13.39774227142334	15.86499881744385	19.30424308776855	12.36137104034424	13.70407390594482	16.44347381591797	13.48569583892822	14.92622470855713	18.37263488769531	13.12380027770996	18.52511978149414	12.59389400482178	14.58424854278564	11.266845703125	17.10467147827148	15.1502103805542	13.2055606842041	15.74601364135742	20.79983711242676	16.37195014953613	14.09019184112549	16.80595016479492	16.23163223266602	11.07343006134033	16.26913070678711	16.13473510742188	16.14398956298828	15.42069625854492	16.74691390991211	14.16624736785889	10.24618053436279	18.49057960510254	13.16014671325684	17.81240940093994
195	210	13.65175247192383	11.80655670166016	12.29186344146729	16.34538650512695	14.15391063690186	11.52509880065918	13.96476173400879	11.34822559356689	10.76396179199219	11.73963642120361	8.547261238098145	9.914093017578125	12.68496799468994	11.10917186737061	13.69819736480713	12.00946044921875	11.50350666046143	17.19612503051758	12.97116279602051	10.2117223739624	13.64786243438721	13.80915260314941	13.07323741912842	12.30281162261963	13.75713539123535	11.86664295196533	16.43828773498535	12.02898597717285	12.11613464355469	18.73155403137207	11.62850856781006	15.01912403106689	17.00646209716797	15.28579044342041	13.08015537261963	16.18384742736816	20.31986236572266	13.10601902008057	15.05240154266357	15.78817272186279	14.37577819824219	14.73491096496582	17.78942108154297	13.70822238922119	18.1540699005127	13.688889503479	15.78334712982178	12.30650424957275	15.24423408508301	17.54781150817871	17.59357070922852	14.12020587921143	17.62209892272949	16.37910079956055	12.56492137908936	16.85552597045898	16.74939918518066	13.72672176361084	16.35464096069336	16.62029647827148	15.04694557189941	16.33880424499512	16.30465888977051	14.55619716644287	10.11162948608398	16.18095779418945	12.73145294189453	19.03656387329102	10.46250629425049	15.68757629394531	20.4327335357666	13.5816650390625	15.07423305511475	15.67038345336914	14.58389759063721	15.28126907348633	18.25511360168457	13.93509769439697	19.47433471679688	13.69528961181641	14.58478832244873	12.2388391494751	18.320068359375	16.82632064819336	14.09503078460693	15.77421569824219	20.82437324523926	15.48074245452881	14.06376934051514	17.62530136108398	17.00073051452637	11.75664234161377	16.85117149353027	16.59689521789551	16.87849998474121	15.87497901916504	16.60548973083496	16.79773902893066	11.73340797424316	18.13859176635742	12.82612228393555	17.73966979980469
210	225	13.08229637145996	11.87232971191406	12.45577335357666	16.48256683349609	13.83393859863281	10.43514633178711	13.28695583343506	11.98258304595947	11.24769115447998	11.11673545837402	9.670439720153809	10.17104911804199	10.13496685028076	10.67729187011719	12.90860843658447	12.19650459289551	12.30066108703613	17.37951469421387	13.76979637145996	10.59811687469482	12.56376552581787	10.0608377456665	10.9508228302002	11.39672088623047	11.93309879302979	10.47030067443848	13.73540878295898	11.94835376739502	12.1583833694458	15.28740406036377	10.47584438323975	14.74905681610107	17.07003021240234	13.41091156005859	14.1920108795166	16.1325569152832	19.38064956665039	10.93295860290527	14.39117050170898	16.60818672180176	13.91195106506348	13.8271541595459	17.27470588684082	12.88483810424805	15.9635124206543	14.55114936828613	15.44863891601562	13.79240608215332	13.61114978790283	17.74676132202148	15.07326889038086	15.2845287322998	17.330078125	16.49465942382812	12.60494995117188	17.3142204284668	16.41792488098145	13.92000102996826	16.765380859375	16.35199928283691	16.02338600158691	16.03442764282227	16.89181900024414	12.08678150177002	9.607702255249023	15.5925989151001	14.12650966644287	17.83530807495117	14.87106418609619	15.52550601959229	19.41404914855957	12.03122901916504	14.84498691558838	16.74268341064453	14.22444725036621	11.78994274139404	18.37628173828125	13.60332202911377	19.46500205993652	14.04912376403809	15.56444263458252	12.86431121826172	16.64316558837891	17.11421203613281	16.33941459655762	15.18534564971924	20.23377418518066	17.48297119140625	13.86064720153809	17.47161674499512	17.01462745666504	12.23847484588623	17.22237396240234	16.014404296875	17.14279747009277	15.27184391021729	15.96510124206543	15.75967693328857	11.98008918762207	16.71238708496094	13.35849857330322	17.902099609375
225	240	13.58208179473877	12.04457759857178	12.38837909698486	16.7589111328125	13.98083400726318	10.59495639801025	15.16116333007812	12.06970691680908	10.92810821533203	9.947271347045898	8.383785247802734	9.696529388427734	13.12757587432861	10.12320804595947	9.531916618347168	12.26333332061768	12.49291515350342	17.50864791870117	11.95200634002686	10.63213634490967	14.27938652038574	15.49814987182617	11.32404613494873	9.618061065673828	11.76721572875977	10.69575214385986	13.05197811126709	11.75819683074951	12.04260444641113	14.56659889221191	10.15163898468018	14.70805072784424	17.04935073852539	14.35532093048096	13.16837596893311	16.82458686828613	19.36222076416016	12.03748893737793	15.01456165313721	16.48551368713379	14.00181674957275	14.48629283905029	17.84555816650391	13.1106014251709	17.0263843536377	13.77017021179199	16.51701354980469	11.08498764038086	16.8053092956543	16.78820419311523	13.58994579315186	14.86876773834229	19.75260162353516	17.33382225036621	13.63588333129883	16.51930999755859	16.03708076477051	13.16961288452148	16.83995056152344	17.26555633544922	15.63409805297852	15.7937536239624	16.74743270874023	14.50766944885254	9.982929229736328	15.61312580108643	13.60975551605225	15.19529056549072	11.79398155212402	17.57113075256348	19.33525657653809	13.09495162963867	14.56879615783691	16.04374504089355	14.91768074035645	13.0020170211792	19.15150260925293	13.6621265411377	18.51043891906738	13.23899173736572	14.77697467803955	11.03169345855713	15.71564388275146	17.46606636047363	12.75905323028564	15.85709857940674	18.70929145812988	16.7111644744873	13.96686458587646	15.98138618469238	16.24810409545898	13.28580856323242	16.8543815612793	15.66064929962158	17.20223426818848	14.45585250854492	17.58122444152832	15.5112361907959	9.990200042724609	18.87084579467773	13.47493457794189	18.16128635406494
