frame_start	frame_end	highbinding	left_cerebral_white_matter	left_cerebellum_white_matter	left_cerebellum_cortex	left_thalamus	left_caudate	left_putamen	left_pallidum	brain_stem	left_hippocampus	left_amygdala	csf	left_accumbens_area	left_ventraldc	left_choroid_plexus	right_cerebral_white_matter	right_cerebellum_white_matter	right_cerebellum_cortex	right_thalamus	right_caudate	right_putamen	right_pallidum	right_hippocampus	right_amygdala	right_accumbens_area	right_ventraldc	right_choroid_plexus	aircavity	skull	vermis	pons	csf_extracerebral	head_extracerebral	ctx_lh_bankssts	ctx_lh_caudalanteriorcingulate	ctx_lh_caudalmiddlefrontal	ctx_lh_cuneus	ctx_lh_entorhinal	ctx_lh_fusiform	ctx_lh_inferiorparietal	ctx_lh_inferiortemporal	ctx_lh_isthmuscingulate	ctx_lh_lateraloccipital	ctx_lh_lateralorbitofrontal	ctx_lh_lingual	ctx_lh_medialorbitofrontal	ctx_lh_middletemporal	ctx_lh_parahippocampal	ctx_lh_paracentral	ctx_lh_parsopercularis	ctx_lh_parsorbitalis	ctx_lh_parstriangularis	ctx_lh_pericalcarine	ctx_lh_postcentral	ctx_lh_posteriorcingulate	ctx_lh_precentral	ctx_lh_precuneus	ctx_lh_rostralanteriorcingulate	ctx_lh_rostralmiddlefrontal	ctx_lh_superiorfrontal	ctx_lh_superiorparietal	ctx_lh_superiortemporal	ctx_lh_supramarginal	ctx_lh_frontalpole	ctx_lh_temporalpole	ctx_lh_transversetemporal	ctx_lh_insula	ctx_rh_bankssts	ctx_rh_caudalanteriorcingulate	ctx_rh_caudalmiddlefrontal	ctx_rh_cuneus	ctx_rh_entorhinal	ctx_rh_fusiform	ctx_rh_inferiorparietal	ctx_rh_inferiortemporal	ctx_rh_isthmuscingulate	ctx_rh_lateraloccipital	ctx_rh_lateralorbitofrontal	ctx_rh_lingual	ctx_rh_medialorbitofrontal	ctx_rh_middletemporal	ctx_rh_parahippocampal	ctx_rh_paracentral	ctx_rh_parsopercularis	ctx_rh_parsorbitalis	ctx_rh_parstriangularis	ctx_rh_pericalcarine	ctx_rh_postcentral	ctx_rh_posteriorcingulate	ctx_rh_precentral	ctx_rh_precuneus	ctx_rh_rostralanteriorcingulate	ctx_rh_rostralmiddlefrontal	ctx_rh_superiorfrontal	ctx_rh_superiorparietal	ctx_rh_superiortemporal	ctx_rh_supramarginal	ctx_rh_frontalpole	ctx_rh_temporalpole	ctx_rh_transversetemporal	ctx_rh_insula	reference
0	15	0.007451100740582	0.008765748701989651	0.001476278412155807	0.002620100975036621	0.0008433569455519319	0.01110194809734821	0.001425177324563265	0.0001659116242080927	0.001334778848104179	0.01555696967989206	0.009613921865820885	0.008353211916983128	0.04211268201470375	0.03310957923531532	0.0003197557816747576	0.01322268135845661	0.01177999656647444	0.01017560157924891	0.01609230041503906	0.002524437615647912	0.012018833309412	0.00248378561809659	1.72543223015964e-05	0.0002088831388391554	0.00248162797652185	0.0002814278705045581	1.384367260470754e-05	0.00336302281357348	0.004018213599920273	0	0.00396367534995079	0.008516697213053703	0.001281156903132796	0.00113884115125984	0.02251695841550827	0.007954865694046021	0.001475344528444111	1.024514403979992e-05	0.009940484538674355	0.004536851309239864	0.0003116911684628576	0.0007598125957883894	0.004289776086807251	0.01687411405146122	0.001621988601982594	0.007262285333126783	0.008053632453083992	0.002911368384957314	0	0.01612826250493526	0.00255959783680737	0.002289860974997282	0.002865122631192207	0.0001422828936483711	0.006822026800364256	0.0002151656517526135	0.01361910626292229	0.1203361228108406	0.001980352681130171	0.00266062980517745	0.01190817728638649	0.005542836617678404	0.002845215611159801	0.06037332862615585	0.002424781443551183	9.12889026949415e-06	0.008597582578659058	0.002217501867562532	0.01659843698143959	3.92217407352291e-06	0.001498535973951221	5.348556442186236e-05	0.009705624543130398	0.009249653667211533	0.02601067908108234	0.002255178755149245	0.006532268133014441	0.01609141565859318	0.00792721938341856	0.05162480100989342	0.02597220055758953	0.002975555136799812	1.805179090297315e-05	0.005982502829283476	0.04084990546107292	0.01633709482848644	3.800576814683154e-05	0.006524420809000731	0.02037136442959309	0.007238739635795355	0.003699830267578363	0.03048028238117695	0.007582031656056643	0.01009670086205006	0.01633825711905956	0.003259597579017282	0.02731594815850258	0.01359269674867392	0.002620097482576966	0.01309349481016397	0.0002083611470879987	0.007346497441176
15	30	0.309997022151947	0.2305636405944824	0.1681917905807495	0.142093688249588	0.2672418355941772	0.3175338506698608	0.39260533452034	0.2778352200984955	0.1486016809940338	0.2443836480379105	0.4341818988323212	0.2168841063976288	0.1601211726665497	0.2206249386072159	0.04288233816623688	0.1710340082645416	0.1355459243059158	0.1589629948139191	0.174703449010849	0.230046346783638	0.2521311342716217	0.3369355797767639	0.3295478820800781	0.1440272480249405	0.3990069329738617	0.1286888122558594	0.02994169853627682	0.08700411766767502	0.09559300541877747	0.04513301700353622	0.2395750284194946	0.1633849292993546	0.08041031658649445	0.234495222568512	0.2023025900125504	0.116247683763504	0.1025016084313393	0.1459116637706757	0.1670163571834564	0.1913459599018097	0.2018899023532867	0.2941637933254242	0.1640080809593201	0.3167908191680908	0.1567623913288116	0.2435646057128906	0.2041125595569611	0.140266552567482	0.221092164516449	0.2219999134540558	0.1806401610374451	0.2971013188362122	0.1012618094682693	0.1305074393749237	0.2575790584087372	0.1774979680776596	0.1975097805261612	0.2298577129840851	0.3533747494220734	0.2022036463022232	0.1338082700967789	0.183910146355629	0.2228271961212158	0.0985998660326004	0.3669228255748749	0.390523761510849	0.1391580551862717	0.04953760281205177	0.3849250078201294	0.1524489223957062	0.1301025599241257	0.1560859382152557	0.1405930817127228	0.1871279031038284	0.1607149392366409	0.1259436160326004	0.1453471034765244	0.1953091472387314	0.1819341480731964	0.1847897171974182	0.1783978193998337	0.3360674977302551	0.2444165349006653	0.1351163685321808	0.1396543383598328	0.302736908197403	0.03850645944476128	0.1630366295576096	0.138830229640007	0.1741210222244263	0.09485901892185211	0.237118199467659	0.1684406697750092	0.2118796408176422	0.08044636249542236	0.2035225927829742	0.2064001113176346	0.2935055196285248	0.0344507023692131	0.1235879957675934	0.1162921339273453	0.155980192124844
30	45	1.586611270904541	1.057679772377014	0.9891605973243713	1.109651565551758	0.9844067096710205	1.225117444992065	1.319178581237793	0.984814465045929	1.081328988075256	1.685820460319519	1.974398255348206	1.208493232727051	1.482720971107483	0.8868906497955322	1.48192834854126	1.028525590896606	0.8825258612632751	1.179712295532227	1.337389230728149	1.52401864528656	1.971232652664185	1.36816942691803	1.591707229614258	1.89974319934845	1.590163469314575	1.41400158405304	2.139714479446411	0.7198572754859924	0.7852112054824829	0.7501618266105652	0.9127916693687439	1.778476595878601	0.8444675803184509	1.610352277755737	1.481765031814575	1.322280168533325	1.587073087692261	1.381977438926697	1.216006398200989	1.210714936256409	1.291392922401428	1.881106376647949	1.471661686897278	1.493539452552795	1.305256009101868	1.871546745300293	1.321991205215454	1.749686479568481	1.351790547370911	1.649774074554443	1.431670904159546	1.586012363433838	1.517363786697388	1.577148675918579	1.436963438987732	1.49993884563446	1.347316384315491	1.882884979248047	1.26311182975769	1.32927680015564	1.195568919181824	1.763569235801697	1.57970929145813	1.259896278381348	1.235289573669434	2.37847900390625	1.818752527236938	2.047697305679321	1.836238145828247	1.40159547328949	1.347599864006042	1.590346217155457	1.144828915596008	1.382009267807007	1.153520584106445	1.80465841293335	1.286232471466064	1.494470357894897	1.402080774307251	1.385666966438293	1.101364612579346	1.569289207458496	1.426163673400879	1.916584253311157	1.573034405708313	1.607601523399353	1.449068069458008	1.54843270778656	1.432152271270752	1.41756534576416	1.334428787231445	1.795320510864258	1.258747696876526	1.395973920822144	1.085279107093811	1.862149834632874	1.290666341781616	1.415949940681458	1.031772375106812	2.123986482620239	1.808821439743042	1.115014851093292
45	60	4.163158416748047	3.055495500564575	3.095852375030518	4.3743896484375	4.197502613067627	3.478462696075439	3.793154954910278	2.798201322555542	3.56751561164856	5.280646324157715	5.540384769439697	3.657219648361206	4.890921115875244	3.656798124313354	6.485571384429932	2.875747442245483	2.711451530456543	4.806050777435303	4.055012226104736	3.314724206924438	4.052411079406738	2.262359142303467	4.400398731231689	6.151725769042969	2.423791885375977	2.778964996337891	6.050313949584961	2.395504713058472	2.805246353149414	4.264845371246338	3.561003446578979	6.113414287567139	2.704083681106567	3.892530679702759	4.652926445007324	3.710563659667969	5.909674644470215	4.066959381103516	3.801332235336304	3.756529092788696	4.107759475708008	5.281763553619385	4.543161392211914	3.72055721282959	5.311594486236572	4.892059326171875	3.844226121902466	4.80647611618042	4.870302200317383	4.306745052337646	4.875248432159424	4.621373653411865	4.131957530975342	4.907289981842041	3.573203325271606	3.906449794769287	3.596168518066406	4.336947441101074	4.042411327362061	3.874387502670288	4.33261251449585	4.952012062072754	4.183987140655518	4.408993244171143	2.837239265441895	6.553829193115234	5.152506828308105	5.360730171203613	4.623464584350586	3.854395389556885	4.462166309356689	5.199594020843506	3.942845106124878	3.977517127990723	3.756939888000488	6.288478851318359	4.763813972473145	3.82553243637085	4.805812835693359	4.438992500305176	3.963350057601929	4.847434043884277	3.532913446426392	4.568225860595703	3.631951332092285	4.569327354431152	4.063916683197021	3.857765436172485	4.26183032989502	4.005894660949707	3.816328287124634	4.983945369720459	4.143997669219971	4.004629611968994	3.845110654830933	5.168357849121094	4.185279846191406	4.017696857452393	4.870337009429932	6.663433074951172	4.433083534240723	4.535499572753906
60	75	5.664278507232666	4.854493141174316	4.480595111846924	6.888094902038574	5.722674369812012	4.532793045043945	6.320631980895996	7.121435642242432	5.518415451049805	6.953840255737305	6.050896167755127	5.463058948516846	8.455340385437012	3.979539394378662	10.11376476287842	4.61858081817627	4.232278823852539	7.203040599822998	5.668595790863037	4.329091548919678	6.158707141876221	5.057113170623779	6.096147537231445	6.605411052703857	4.326549530029297	5.373281478881836	7.40151309967041	3.745200634002686	4.671091556549072	5.114748001098633	4.500741004943848	9.157939910888672	4.269280433654785	6.507050514221191	7.087378025054932	5.765526294708252	8.373817443847656	5.018328666687012	5.875827789306641	6.673141002655029	6.028262615203857	6.825793743133545	7.138394832611084	6.00130558013916	8.060148239135742	7.164068222045898	5.956613063812256	6.341066837310791	7.479811668395996	7.088640689849854	6.473282814025879	7.074104785919189	7.550756931304932	6.831843376159668	7.282401561737061	6.7808518409729	5.942028999328613	6.842000007629395	6.516073226928711	6.305663585662842	6.546292781829834	6.758577346801758	6.929143905639648	6.693718433380127	5.085101127624512	8.879851341247559	6.685037136077881	7.218254089355469	6.271465301513672	6.287753582000732	6.829019069671631	6.241189479827881	6.03561544418335	6.280974388122559	5.612635612487793	8.372952461242676	7.650111675262451	6.272216796875	7.670104026794434	6.391151428222656	5.770291328430176	5.692015171051025	6.054195880889893	7.370941162109375	6.101238250732422	6.602447986602783	6.822795867919922	6.318796157836914	5.382803916931152	6.630913257598877	6.262306690216064	6.03252649307251	6.104560852050781	6.33307409286499	6.05470085144043	7.108978271484375	6.783047676086426	5.754093647003174	6.566380977630615	7.204839706420898	7.509428024291992	7.014001131057739
75	90	8.00572681427002	6.436440467834473	6.22979736328125	9.294981002807617	8.890830039978027	6.573671340942383	7.4748215675354	5.883544921875	6.300590038299561	9.471074104309082	8.230996131896973	7.005063056945801	5.739771842956543	8.819137573242188	10.69650840759277	6.319416046142578	5.905320644378662	9.943671226501465	7.78157901763916	7.01829719543457	7.863584518432617	9.590971946716309	8.620461463928223	7.354004383087158	7.289976596832275	6.713579654693604	8.474947929382324	5.14418363571167	6.472527980804443	6.977972984313965	5.989131927490234	11.37635517120361	5.915590286254883	7.24199390411377	7.79680347442627	8.291314125061035	11.77816295623779	7.588667869567871	7.626094818115234	8.877153396606445	7.686612129211426	9.731910705566406	10.37158012390137	7.792378902435303	10.37863731384277	9.251346588134766	7.944716453552246	7.591233253479004	10.24901962280273	9.480856895446777	8.937714576721191	9.237065315246582	9.672212600708008	8.798183441162109	8.819926261901855	9.010930061340332	9.171698570251465	8.474532127380371	8.843221664428711	8.609376907348633	8.988114356994629	9.367948532104492	9.095849990844727	8.200596809387207	6.06894063949585	11.47808647155762	9.203948020935059	8.354757308959961	7.649740695953369	8.041377067565918	9.914803504943848	8.43604850769043	8.049458503723145	8.370907783508301	7.047806262969971	11.2123498916626	10.0515022277832	8.256880760192871	11.04134273529053	8.668651580810547	8.550166130065918	7.413220405578613	7.769762992858887	9.300721168518066	8.649171829223633	8.831536293029785	10.92355251312256	8.353950500488281	8.754240036010742	8.698254585266113	8.293390274047852	9.972858428955078	8.838343620300293	8.597592353820801	8.375949859619141	9.519939422607422	9.10774040222168	7.405834674835205	8.796748161315918	10.0590295791626	8.957448959350586	9.717434406280518
90	105	9.960780143737793	8.260796546936035	7.915930271148682	11.81359195709229	10.94379711151123	8.433826446533203	10.66299819946289	8.072861671447754	8.57485294342041	10.84160900115967	9.692194938659668	8.874578475952148	11.2768669128418	8.688400268554688	15.44248962402344	8.204840660095215	7.910094738006592	12.35523223876953	9.686939239501953	8.100398063659668	9.094052314758301	6.918949127197266	10.68684673309326	10.34585857391357	6.448599815368652	8.701945304870605	14.25741672515869	6.4718017578125	8.335105895996094	10.61702442169189	8.272202491760254	14.06301879882812	7.604497909545898	9.963134765625	9.784759521484375	10.410231590271	15.29493713378906	8.798919677734375	10.64297389984131	11.418044090271	10.22970199584961	12.66275787353516	13.08981990814209	10.05261039733887	12.82476043701172	9.95234203338623	10.62330150604248	10.38482570648193	11.42679786682129	12.1846809387207	11.13814830780029	11.10333061218262	11.04360866546631	11.9234790802002	10.02951145172119	10.85474014282227	10.96578311920166	10.93322563171387	11.1540412902832	10.44363212585449	11.33221817016602	11.56289958953857	11.06973838806152	11.58460807800293	7.983256340026855	13.39943504333496	11.8781795501709	12.20499229431152	9.574646949768066	10.51651191711426	14.51300525665283	9.114890098571777	10.50853729248047	10.57426357269287	9.694342613220215	13.42423343658447	12.57862854003906	10.02580451965332	13.55009460449219	9.559122085571289	10.12028789520264	10.030348777771	10.53018188476562	13.42909336090088	11.34969425201416	10.6109676361084	12.54528999328613	10.16150188446045	10.69986915588379	11.26782512664795	11.23960304260254	8.425033569335938	10.92929458618164	10.52188682556152	11.41835975646973	12.12301731109619	10.91549682617188	9.111004829406738	10.83489990234375	16.28072738647461	11.49511432647705	12.18080282211304
105	120	12.24778938293457	9.808258056640625	8.300718307495117	14.08881664276123	11.59221744537354	10.49026107788086	12.98594284057617	10.73934745788574	9.409682273864746	11.78209590911865	11.36626434326172	10.57424354553223	12.80168628692627	11.42818450927734	17.46670341491699	9.680334091186523	8.952414512634277	14.68620491027832	12.23075771331787	9.474113464355469	12.32474327087402	9.505222320556641	11.97454357147217	13.38197994232178	8.923250198364258	9.364620208740234	15.87510681152344	7.787071228027344	9.962911605834961	11.63530349731445	9.457212448120117	16.00202369689941	8.985522270202637	12.96485900878906	11.35719776153564	12.11686229705811	16.85366630554199	11.91766548156738	12.40634155273438	13.62336921691895	11.11722183227539	13.21867084503174	15.49952697753906	11.66813468933105	16.63898658752441	13.46909332275391	12.45349979400635	12.28033924102783	13.41032600402832	13.85358715057373	13.76936149597168	12.77326774597168	16.27132606506348	12.77475452423096	11.96607112884521	12.41504859924316	12.48639965057373	12.82213306427002	13.22353267669678	13.00092029571533	13.09189796447754	13.50573062896729	13.22732639312744	14.45326805114746	9.962702751159668	14.01975917816162	13.89241981506348	15.61590766906738	11.05793190002441	12.58530521392822	14.75363349914551	12.23622226715088	11.88782024383545	12.85588073730469	11.32954025268555	15.34076690673828	14.84512805938721	12.72493076324463	16.2301082611084	11.88062000274658	12.72518634796143	11.8648567199707	12.24975872039795	13.73762893676758	11.76647567749023	13.23931312561035	14.34937381744385	12.09352207183838	12.30630397796631	12.73879623413086	14.63626670837402	14.03229999542236	13.03038501739502	12.82538414001465	12.36616230010986	13.43248844146729	13.47731018066406	12.54789257049561	11.82016086578369	19.52873992919922	11.5744686126709	14.74086570739746
120	135	12.79628562927246	10.62630271911621	9.902034759521484	15.3657922744751	13.44471549987793	10.70736312866211	13.22458744049072	9.233555793762207	9.846192359924316	13.52890777587891	12.317702293396	9.981132507324219	12.3372688293457	11.216721534729	14.94935989379883	10.63160800933838	9.771126747131348	15.92321681976318	11.31414318084717	9.900365829467773	13.57731533050537	11.9001407623291	13.31472492218018	12.86055946350098	16.21449089050293	11.82891082763672	16.57062721252441	8.87962532043457	11.06894493103027	13.81827640533447	9.608973503112793	17.52427291870117	10.13392734527588	13.58416748046875	11.68012714385986	13.49679279327393	20.2411003112793	10.31368732452393	12.93064212799072	15.90453052520752	13.76763153076172	15.77793598175049	18.00033187866211	13.43532466888428	17.86149024963379	13.55497646331787	14.04148292541504	12.28778457641602	14.55581665039062	14.38899230957031	14.53334903717041	14.38858890533447	17.81585502624512	15.29537105560303	13.01580619812012	14.12847709655762	14.64676761627197	12.51862716674805	14.47327327728271	14.98826122283936	14.64677143096924	14.16333770751953	14.5677318572998	14.40751552581787	9.840591430664062	15.96457004547119	12.87147331237793	14.89375782012939	11.88287353515625	12.32907390594482	17.02652168273926	11.24944019317627	14.0125560760498	14.98601245880127	11.9580717086792	17.30329513549805	16.76711082458496	13.61722278594971	17.72699737548828	13.79850578308105	13.82015991210938	11.58037567138672	14.47243785858154	14.3961353302002	14.48190689086914	14.39173793792725	17.26180458068848	13.76318359375	14.24363040924072	14.14343070983887	15.70956420898438	14.52648639678955	15.14702987670898	13.95998764038086	14.24423503875732	15.20463180541992	13.68666458129883	12.51246356964111	12.3872241973877	15.7468729019165	13.67962074279785	15.97337961196899
135	150	14.7122974395752	11.77033615112305	12.03905868530273	17.86455917358398	14.96903038024902	10.42098236083984	15.62263011932373	11.26847267150879	11.25010967254639	14.70578289031982	12.89770698547363	11.18583393096924	14.32520294189453	14.0103874206543	20.44205093383789	11.67727279663086	10.04273891448975	17.81573677062988	13.26861667633057	11.64666938781738	16.28475570678711	13.19007587432861	13.09935760498047	12.2758092880249	13.89170455932617	11.0757532119751	15.25689315795898	9.698357582092285	12.37714195251465	14.52319145202637	10.68395614624023	18.7116641998291	11.22184562683105	14.21002960205078	10.7067985534668	14.88519382476807	21.51408004760742	14.33487892150879	14.55655479431152	16.59449195861816	15.18483448028564	16.5821418762207	19.76861190795898	15.0880012512207	19.78693389892578	15.73602962493896	14.48152828216553	14.61865615844727	17.01874160766602	17.1837100982666	16.47840309143066	16.00782585144043	20.10018348693848	16.98372268676758	12.76981163024902	15.96972846984863	16.02092742919922	13.77665233612061	16.20772361755371	15.37053298950195	16.65857887268066	15.0274133682251	15.64186096191406	16.29562759399414	11.06601238250732	20.16097831726074	14.62891006469727	16.08072471618652	12.34510803222656	15.49865341186523	18.76175880432129	14.16402816772461	14.08477973937988	16.07844543457031	13.71660900115967	19.53824234008789	19.35902404785156	14.90358829498291	18.60869598388672	14.14662075042725	15.79831695556641	16.099853515625	14.63581562042236	15.36141586303711	14.60906410217285	15.84171867370605	20.00513648986816	16.08898735046387	12.86493396759033	15.30850124359131	16.9644832611084	13.08954334259033	16.0058422088623	15.54757690429688	15.64530467987061	16.82387924194336	15.07044410705566	12.65907573699951	12.53131294250488	17.63864898681641	14.060791015625	18.54659557342529
150	165	14.97812366485596	12.44274139404297	12.26497459411621	17.72573471069336	14.58094692230225	11.61419105529785	15.5758752822876	13.77624702453613	11.44553375244141	13.09178352355957	13.04067420959473	11.1005687713623	11.65517044067383	12.24984645843506	17.55195236206055	12.3780345916748	11.86039257049561	18.87669372558594	14.66971111297607	11.90642929077148	15.53897953033447	11.96588706970215	16.47507286071777	14.54096698760986	11.33047199249268	11.72769260406494	16.76200103759766	9.831737518310547	13.06100559234619	16.06924247741699	10.9707145690918	18.85551452636719	11.77613830566406	16.05747222900391	13.86190986633301	15.48317527770996	21.78911590576172	13.11212921142578	15.07212066650391	17.70920753479004	15.30746841430664	16.11444282531738	21.01900100708008	14.81636524200439	19.36762428283691	16.11533355712891	15.6962833404541	12.87349796295166	16.6869945526123	17.34015846252441	16.83673095703125	17.9531192779541	20.33526039123535	17.20627784729004	16.4891185760498	17.29787445068359	16.89876556396484	13.65754222869873	17.64762115478516	17.09944152832031	18.02845191955566	16.37237358093262	16.44367980957031	14.52392292022705	14.41753387451172	19.0440788269043	15.70043659210205	19.04251861572266	13.79977798461914	16.56972503662109	21.3378791809082	12.24526309967041	15.55511379241943	17.41263389587402	14.32363605499268	16.53112983703613	20.38882827758789	15.37428379058838	21.6325855255127	15.40822124481201	15.66880226135254	12.02683544158936	16.2012825012207	17.0571117401123	16.49174118041992	18.63297271728516	22.87566184997559	16.72170066833496	14.31599903106689	16.25037002563477	17.29696273803711	13.70745468139648	17.27860260009766	16.21772193908691	16.78362655639648	17.36899948120117	17.19034576416016	17.07195854187012	12.82558917999268	18.51019859313965	15.66746044158936	18.88408184051514
165	180	15.63851356506348	13.12019634246826	12.38881206512451	18.65169715881348	16.36291885375977	12.61161422729492	15.41789531707764	12.50453090667725	11.82921314239502	13.8484354019165	12.03501605987549	11.40566349029541	13.52242279052734	12.49603176116943	22.60746002197266	13.07354068756104	12.91573333740234	19.42000961303711	14.64005088806152	12.11362552642822	15.80803108215332	11.78386211395264	13.49413394927979	13.52453708648682	14.06007194519043	12.24938678741455	15.2728910446167	10.01015758514404	13.40872001647949	15.62051677703857	11.18651866912842	18.22077751159668	12.06986427307129	16.20788955688477	15.88475799560547	16.04235076904297	22.80620574951172	14.03921031951904	16.64888763427734	18.45084571838379	15.7893180847168	17.79563140869141	21.65033149719238	15.74796295166016	19.83719253540039	16.32966232299805	15.89334487915039	15.61686897277832	17.50264549255371	15.66347312927246	18.34077262878418	19.27400779724121	21.01476097106934	17.24500274658203	15.0856409072876	17.19458198547363	17.03802680969238	17.33333396911621	18.25152969360352	17.6180248260498	17.36714744567871	16.48632621765137	18.4984302520752	17.38823318481445	10.62092113494873	19.94314002990723	14.90194225311279	17.88519477844238	14.27928161621094	17.92017936706543	21.41324806213379	13.02464199066162	15.12299728393555	17.22199821472168	13.55692195892334	18.53847122192383	19.71214294433594	16.14324188232422	20.52012252807617	14.74777889251709	17.2266788482666	14.88442993164062	14.52527713775635	16.69917488098145	17.99209022521973	19.20620536804199	23.68799209594727	15.8056755065918	17.01507377624512	17.14899444580078	18.76669311523438	15.09177589416504	17.60892295837402	17.62734985351562	17.5783576965332	16.99763870239258	17.26580047607422	18.2722225189209	13.95620727539062	19.66107559204102	16.18882942199707	19.8734245300293
180	195	15.12723159790039	13.42069721221924	12.77334594726562	18.80937576293945	16.69441795349121	10.9178638458252	15.82113742828369	13.41344738006592	12.37548351287842	13.98540210723877	15.57010173797607	11.7974796295166	12.75933170318604	14.29923248291016	18.99486351013184	13.2946662902832	12.55276870727539	19.22919082641602	15.73152637481689	12.18441486358643	14.43050003051758	14.174973487854	13.04764556884766	12.43456363677979	15.84989070892334	14.27064418792725	17.39772605895996	10.27824401855469	13.42882919311523	16.54135131835938	10.41493701934814	18.09125900268555	12.12760257720947	18.85056304931641	17.37947273254395	15.92593669891357	22.27237701416016	12.60713958740234	16.24482345581055	19.61858558654785	16.98428535461426	16.7509593963623	21.38276863098145	16.63425445556641	20.3961296081543	16.04030227661133	16.78281593322754	13.46003532409668	18.69819641113281	17.28524589538574	19.30881309509277	17.50497627258301	21.36737442016602	18.12590408325195	16.5640811920166	17.45326805114746	18.06087112426758	14.78811645507812	18.9031867980957	18.1436595916748	18.06228828430176	17.39348220825195	17.91856002807617	14.94722366333008	12.50913238525391	19.9936637878418	16.37087440490723	21.22930335998535	14.39306735992432	17.3691463470459	21.39698600769043	12.44562816619873	15.79152679443359	18.93117713928223	16.07187080383301	17.97689628601074	20.89820671081543	16.82846260070801	21.02688980102539	16.92789649963379	16.93823623657227	14.07453346252441	16.53164672851562	18.39410400390625	17.33231163024902	17.95979118347168	21.48414993286133	16.83930587768555	15.028076171875	17.80924415588379	18.49192047119141	13.49927139282227	18.81358528137207	17.94935417175293	18.18146133422852	18.23662757873535	18.11520957946777	17.29565811157227	13.65954780578613	20.44464874267578	15.43346977233887	19.83520126342773
195	210	16.68631553649902	13.80887889862061	13.02445507049561	18.59409332275391	17.42779541015625	12.27652263641357	16.66900444030762	14.97900390625	12.00407314300537	14.54957008361816	12.69799423217773	10.80572509765625	14.02436637878418	13.54403781890869	18.59729766845703	13.65488910675049	14.34745311737061	19.36857032775879	16.03225898742676	13.57878017425537	16.08109855651855	13.91240501403809	15.10657978057861	14.58713722229004	12.52757263183594	11.77140140533447	19.4685001373291	9.933082580566406	13.48040866851807	19.69285583496094	12.2870922088623	18.0176887512207	12.43004035949707	16.68835258483887	13.33535385131836	18.10861968994141	21.27312660217285	14.16187381744385	17.25360870361328	19.69744682312012	17.10990905761719	16.37531089782715	21.97291374206543	17.3325080871582	21.20792579650879	17.18543815612793	17.43048095703125	15.22348690032959	17.96685981750488	17.77802276611328	16.93418884277344	18.73673057556152	22.09072303771973	17.02744102478027	16.24953079223633	18.77040100097656	18.34610748291016	14.48637294769287	18.47127151489258	17.98743438720703	18.87146186828613	18.24422454833984	19.86772727966309	16.73206901550293	12.11382579803467	22.84956550598145	15.95215606689453	18.62717247009277	14.38321971893311	17.89741325378418	20.47131538391113	12.10026931762695	16.88388633728027	18.9376106262207	15.92742824554443	19.22754859924316	21.8499927520752	17.07635688781738	21.25601959228516	16.18296241760254	17.67570495605469	12.75473499298096	16.10514259338379	17.4013500213623	18.48000907897949	17.36443138122559	21.59238433837891	17.30714225769043	17.03063201904297	17.35406684875488	20.40444755554199	14.95645236968994	18.93525695800781	18.47089576721191	17.8245964050293	17.65629768371582	18.99606132507324	16.57632637023926	13.33731746673584	15.83699512481689	16.66802597045898	19.72290420532227
210	225	16.50039291381836	14.05326366424561	14.40611743927002	19.1745719909668	17.35825157165527	12.55639266967773	18.24109840393066	17.38794326782227	12.85818290710449	14.45876979827881	15.02581691741943	11.45932006835938	14.74481773376465	14.25640296936035	18.34094619750977	13.99378776550293	14.48379421234131	19.51634979248047	14.9320240020752	13.17957210540771	16.61472320556641	16.13011741638184	15.2900972366333	12.52951717376709	17.15049171447754	14.72820854187012	17.92337417602539	10.31733131408691	13.73666763305664	18.14251136779785	11.23496913909912	18.04009628295898	12.55730724334717	18.38057708740234	12.01982021331787	18.0129451751709	22.64596939086914	14.68810081481934	17.46743011474609	19.92792129516602	17.65385437011719	17.69453239440918	21.72674942016602	17.79263687133789	21.42140960693359	18.05168342590332	16.94856071472168	13.49069118499756	18.84436225891113	18.21965980529785	18.52776145935059	19.68645858764648	21.87521171569824	17.74358367919922	15.4780912399292	18.69501686096191	19.25564002990723	18.63859367370605	18.49988174438477	19.06553268432617	18.67161560058594	17.6494255065918	19.2725715637207	18.48339462280273	12.42101955413818	22.18278884887695	15.59629821777344	19.25519180297852	14.5003833770752	19.89780616760254	22.50399780273438	12.85097408294678	17.5841121673584	19.4473705291748	15.99377059936523	19.61811065673828	21.45571899414062	16.61795616149902	21.29606819152832	17.63866996765137	16.97124862670898	15.91823577880859	17.44742393493652	18.96354293823242	17.42645263671875	20.10413932800293	23.56446075439453	17.79095840454102	15.54923343658447	18.01857376098633	19.91179656982422	16.28059959411621	19.60589408874512	18.19034004211426	18.09523391723633	18.10249900817871	18.9095401763916	16.9619255065918	16.14602279663086	24.61408424377441	16.83344650268555	20.13248825073242
