frame_start	frame_end	highbinding	left_cerebral_white_matter	left_cerebellum_white_matter	left_cerebellum_cortex	left_thalamus	left_caudate	left_putamen	left_pallidum	brain_stem	left_hippocampus	left_amygdala	csf	left_accumbens_area	left_ventraldc	left_choroid_plexus	right_cerebral_white_matter	right_cerebellum_white_matter	right_cerebellum_cortex	right_thalamus	right_caudate	right_putamen	right_pallidum	right_hippocampus	right_amygdala	right_accumbens_area	right_ventraldc	right_choroid_plexus	aircavity	skull	vermis	pons	csf_extracerebral	head_extracerebral	ctx_lh_bankssts	ctx_lh_caudalanteriorcingulate	ctx_lh_caudalmiddlefrontal	ctx_lh_cuneus	ctx_lh_entorhinal	ctx_lh_fusiform	ctx_lh_inferiorparietal	ctx_lh_inferiortemporal	ctx_lh_isthmuscingulate	ctx_lh_lateraloccipital	ctx_lh_lateralorbitofrontal	ctx_lh_lingual	ctx_lh_medialorbitofrontal	ctx_lh_middletemporal	ctx_lh_parahippocampal	ctx_lh_paracentral	ctx_lh_parsopercularis	ctx_lh_parsorbitalis	ctx_lh_parstriangularis	ctx_lh_pericalcarine	ctx_lh_postcentral	ctx_lh_posteriorcingulate	ctx_lh_precentral	ctx_lh_precuneus	ctx_lh_rostralanteriorcingulate	ctx_lh_rostralmiddlefrontal	ctx_lh_superiorfrontal	ctx_lh_superiorparietal	ctx_lh_superiortemporal	ctx_lh_supramarginal	ctx_lh_frontalpole	ctx_lh_temporalpole	ctx_lh_transversetemporal	ctx_lh_insula	ctx_rh_bankssts	ctx_rh_caudalanteriorcingulate	ctx_rh_caudalmiddlefrontal	ctx_rh_cuneus	ctx_rh_entorhinal	ctx_rh_fusiform	ctx_rh_inferiorparietal	ctx_rh_inferiortemporal	ctx_rh_isthmuscingulate	ctx_rh_lateraloccipital	ctx_rh_lateralorbitofrontal	ctx_rh_lingual	ctx_rh_medialorbitofrontal	ctx_rh_middletemporal	ctx_rh_parahippocampal	ctx_rh_paracentral	ctx_rh_parsopercularis	ctx_rh_parsorbitalis	ctx_rh_parstriangularis	ctx_rh_pericalcarine	ctx_rh_postcentral	ctx_rh_posteriorcingulate	ctx_rh_precentral	ctx_rh_precuneus	ctx_rh_rostralanteriorcingulate	ctx_rh_rostralmiddlefrontal	ctx_rh_superiorfrontal	ctx_rh_superiorparietal	ctx_rh_superiortemporal	ctx_rh_supramarginal	ctx_rh_frontalpole	ctx_rh_temporalpole	ctx_rh_transversetemporal	ctx_rh_insula	reference
0	15	-6.33254672e-07	6.836044690317067e-07	0	0	0	0	0	0	0	0	0	0	0	0	0	5.370667167881038e-06	0	0	0	0	0	0	0	0	0	0	0	0	2.360149835567427e-07	0	0	1.443438009118836e-07	0	0	0	0	0	0	0	0	0	0	0	0	0	0	0	0	0	0	0	0	0	1.309556523665378e-06	0	0	0	0	2.87405782728456e-07	0	0	0	0	0	0	0	0	0	0	0	0	0	0	0	0	0	0	0	0	0	0	0	0	0	0	0.0001934719330165535	0	0	0	9.151793101125349e-09	0	0	0	0	0	0	8.955658263587463e-12	0	0	0	4.254475243214983e-07	2.67225701e-07
15	30	0.053262136876583	0.09327986091375351	0.04090946540236473	0.08325518667697906	0.07636965066194534	0.06984476000070572	0.04954805597662926	0.1575717926025391	0.1205904483795166	0.0529358759522438	0.137830838561058	0.07235307991504669	0.01131663005799055	0.1169810518622398	0.06537411361932755	0.07935462146997452	0.07016449421644211	0.08621379733085632	0.047962486743927	0.05237589403986931	0.05764282867312431	0.03922310471534729	0.1854357719421387	0.08988871425390244	0.01826706156134605	0.06583396345376968	0.01036240719258785	0.03521797433495522	0.03428412973880768	0.03684813156723976	0.04388144984841347	0.07892508804798126	0.02203915826976299	0.0560184083878994	0.1239804998040199	0.06804091483354568	0.07026761770248413	0.08369336277246475	0.05146945267915726	0.08727194368839264	0.04880416393280029	0.141088455915451	0.04679710045456886	0.116313673555851	0.03034855239093304	0.0546131432056427	0.08059904724359512	0.1048816815018654	0.20616215467453	0.1071590781211853	0.1735774427652359	0.1248563528060913	0.0297439768910408	0.0688910037279129	0.158525139093399	0.09870903193950653	0.1076940596103668	0.04145148769021034	0.1210222914814949	0.07475563138723373	0.0781075730919838	0.1366473138332367	0.07489348948001862	0.07760759443044662	0.1111721396446228	0.05297619476914406	0.1575240790843964	0.09802833199501038	0.05454925075173378	0.05939185619354248	0.03536920249462128	0.0990312248468399	0.06699860841035843	0.07727063447237015	0.08010825514793396	0.08629082888364792	0.07852035760879517	0.1222562938928604	0.1494242697954178	0.08955521881580353	0.08758021146059036	0.04288777336478233	0.1741746068000793	0.08096684515476227	0.05884085595607758	0.04100846126675606	0.0573696605861187	0.09850297868251801	0.2494178414344788	0.05609952658414841	0.1084889993071556	0.03984326496720314	0.08684742450714111	0.07563717663288116	0.06434498727321625	0.1577722877264023	0.08839387446641922	0.04610024020075798	0.01546413451433182	0.08343847841024399	0.1119649857282639	0.086656332015991
30	45	1.228342056274414	1.001427292823792	0.8930625319480896	1.759067058563232	1.46074104309082	1.068370819091797	1.359577894210815	1.330557823181152	1.402289509773254	1.678668260574341	1.927469730377197	1.142161846160889	1.069208383560181	1.598906278610229	1.996479868888855	0.9507592916488647	0.9716499447822571	1.623917579650879	0.7968142032623291	1.153116106987	1.350123882293701	1.133956551551819	1.320592880249023	1.968644738197327	2.154773235321045	1.364423871040344	0.8549730777740479	0.861885130405426	0.8664834499359131	1.607824325561523	1.279837727546692	2.634564876556396	0.9396141767501831	1.286825180053711	1.643946409225464	1.00271213054657	1.224175333976746	2.237444639205933	1.28691565990448	1.397372364997864	1.436165809631348	1.770771026611328	1.584164619445801	1.343602061271667	1.820860147476196	1.279945850372314	1.407275557518005	1.503735542297363	1.311316728591919	1.640742063522339	1.13507080078125	1.652227282524109	1.501886963844299	1.40264880657196	1.305522918701172	1.275421261787415	1.303530931472778	2.081488847732544	1.164690971374512	1.491527199745178	1.194865822792053	1.775753974914551	1.396115779876709	2.540665626525879	1.780673980712891	2.02559494972229	1.8990718126297	1.621242523193359	1.311076641082764	1.019863128662109	2.31479024887085	1.428834915161133	1.434044361114502	1.430696845054626	1.346349477767944	1.288549184799194	1.544028639793396	1.34097421169281	1.965051531791687	1.604244232177734	1.24145233631134	1.82945454120636	1.52482795715332	1.816025018692017	1.353976368904114	1.624333262443542	1.637775659561157	1.401861310005188	1.855763912200928	1.123548626899719	1.435795187950134	1.756375432014465	1.130334377288818	1.206167817115784	1.272179961204529	1.866196990013123	1.427300930023193	1.021821022033691	1.718172311782837	2.248226404190063	1.845928311347961	1.599759697914124
45	60	3.045679807662964	2.381181716918945	2.574062824249268	5.093651294708252	3.412535190582275	2.052930355072021	3.593589782714844	2.944292068481445	3.302084445953369	3.736141443252563	3.617862224578857	3.325187206268311	2.310780048370361	3.478769302368164	3.996038198471069	2.387916803359985	2.6226966381073	4.761024951934814	3.444859266281128	2.626012086868286	2.773915767669678	2.659036636352539	3.858117341995239	2.947925090789795	2.499516010284424	3.144844532012939	6.671060085296631	2.847589015960693	2.775675773620605	3.812853097915649	3.04690408706665	6.799481868743896	3.213265895843506	3.242342948913574	3.306386947631836	3.244737863540649	3.960833311080933	3.258674144744873	3.461894512176514	3.794981956481934	3.937739849090576	5.713502883911133	3.965067863464355	3.11185097694397	4.230139255523682	2.917455673217773	3.147509813308716	3.227019071578979	3.79283332824707	3.795974016189575	3.662840604782104	4.073006153106689	4.407412528991699	3.132733345031738	3.334563016891479	3.338290929794312	3.797081470489502	3.664548397064209	3.101757526397705	3.712826013565063	3.459191799163818	3.743731737136841	3.427206993103027	4.883114337921143	4.180461406707764	6.268416404724121	4.3416428565979	3.305714845657349	3.091146945953369	3.0008385181427	5.296801090240479	2.939913988113403	3.795321702957153	3.631384134292603	3.053920030593872	4.994280815124512	3.857431411743164	3.211127042770386	4.78924560546875	3.919808149337769	2.973725080490112	3.762567758560181	2.714268684387207	3.903322696685791	3.406664133071899	3.512806177139282	3.847625732421875	3.179433822631836	2.929826021194458	3.284253597259521	3.714698314666748	3.921607732772827	3.322600841522217	3.264936685562134	3.37819242477417	4.450932025909424	3.458972692489624	3.510358333587646	3.907528877258301	3.970026254653931	4.182431221008301	4.765223264694214
60	75	3.927817344665527	3.574821949005127	3.86844539642334	7.088691234588623	4.707350254058838	3.704466819763184	4.16062068939209	3.965136289596558	4.788673400878906	6.275543689727783	4.867501258850098	5.257404327392578	4.943729877471924	5.318166732788086	6.984290599822998	3.532208204269409	3.809969425201416	7.124369621276855	4.393990993499756	3.768537759780884	3.409900665283203	3.588160753250122	4.811983108520508	4.256203174591064	2.606158018112183	3.452459812164307	9.49665641784668	4.03615665435791	4.565348625183105	5.53167200088501	4.743184089660645	9.461117744445801	5.432034492492676	5.949045181274414	5.407399654388428	4.42636251449585	6.522716522216797	5.081538677215576	5.079970836639404	5.17623233795166	4.732451438903809	7.193012237548828	6.46347713470459	4.779610633850098	7.01505184173584	5.563234329223633	5.195471286773682	3.851263761520386	4.463643550872803	5.143762111663818	4.98101282119751	5.906169414520264	5.261922836303711	5.153764247894287	4.590244293212891	5.028141021728516	5.523556232452393	5.955698490142822	4.833382606506348	5.401048183441162	5.220901489257812	5.587879180908203	5.236845970153809	7.554576396942139	7.114763259887695	7.136766910552979	4.803823947906494	5.428690433502197	4.981902599334717	4.917723655700684	7.546579360961914	3.38520884513855	4.680037975311279	5.036203384399414	4.922897815704346	6.081982612609863	5.610025405883789	4.846401691436768	7.331040859222412	4.393163204193115	4.886608600616455	4.002108097076416	4.629794120788574	4.753271102905273	4.675084114074707	5.197911739349365	5.958623886108398	4.803413391113281	5.053569793701172	4.852283954620361	5.130824089050293	4.556722640991211	5.228660106658936	4.946305274963379	5.256828784942627	6.121609210968018	4.970828533172607	5.547353744506836	5.741818904876709	8.01265811920166	5.978846073150635	6.957276582717896
75	90	5.125576496124268	4.412249088287354	5.039740085601807	8.658966064453125	7.000877380371094	5.0109543800354	5.643092632293701	4.699315547943115	5.414493560791016	6.503759860992432	7.542311668395996	5.682982444763184	8.482890129089355	5.236258029937744	8.075512886047363	4.52260160446167	4.621181488037109	8.715784072875977	4.793188095092773	3.568784713745117	5.12835693359375	5.056785106658936	5.565554618835449	5.9646315574646	6.071949005126953	4.576262474060059	7.018306255340576	5.358993053436279	5.86714506149292	8.320147514343262	5.592252254486084	11.26146984100342	7.069659233093262	7.818983554840088	4.892067909240723	5.721968650817871	7.512225151062012	5.832557678222656	6.164555072784424	6.368654727935791	5.786355495452881	10.05651950836182	8.337770462036133	5.497611999511719	8.474249839782715	5.789187908172607	5.809381008148193	5.978998184204102	6.267181396484375	6.47687292098999	6.18146800994873	6.849168300628662	7.639994621276855	6.359342098236084	6.261851787567139	6.528322219848633	6.794501304626465	6.422961235046387	5.796482563018799	6.616243839263916	6.20844030380249	7.249696731567383	6.732972621917725	7.975227355957031	6.849967479705811	7.402402877807617	6.586342334747314	7.261524677276611	5.807137489318848	5.451113224029541	9.624447822570801	5.599885940551758	6.025179862976074	6.566837310791016	5.988645553588867	6.989468574523926	7.398786067962646	6.777509689331055	8.928012847900391	6.414085388183594	5.891852378845215	6.538555145263672	6.516048908233643	7.285708904266357	5.33613395690918	6.703956604003906	7.839956760406494	6.440065383911133	6.742691040039062	6.502583980560303	6.650447845458984	6.009664535522461	6.202459335327148	5.99149751663208	6.427810668945312	6.958532810211182	6.825399398803711	7.66417121887207	4.250209331512451	9.170226097106934	7.207316398620605	8.492827415466309
90	105	6.788468360900879	5.667840480804443	6.246459007263184	10.67859077453613	7.338726997375488	5.767954349517822	7.482456684112549	5.980818748474121	6.671263217926025	6.919204711914062	7.899416446685791	6.717685222625732	6.465621471405029	7.189938068389893	7.546021938323975	5.620541572570801	6.144032955169678	10.15949630737305	6.562256336212158	5.558193206787109	6.972380638122559	4.984839916229248	8.200786590576172	7.454850196838379	7.147633075714111	6.2602858543396	10.95813369750977	6.414309501647949	7.240916728973389	9.775550842285156	5.820286750793457	12.76503086090088	8.765220642089844	7.056766510009766	6.092791080474854	7.415614604949951	10.59994506835938	6.652289390563965	7.402315139770508	8.561651229858398	7.32405948638916	10.61042976379395	10.03758716583252	6.898336887359619	9.821709632873535	7.623045444488525	7.865749835968018	7.092298030853271	8.208793640136719	8.548242568969727	7.950567722320557	10.06516361236572	9.505773544311523	8.205269813537598	6.342031478881836	8.255547523498535	7.345763683319092	7.936698913574219	7.564630508422852	7.422518253326416	8.438739776611328	8.410860061645508	8.273713111877441	8.956701278686523	9.650611877441406	9.975828170776367	8.15467643737793	9.029501914978027	6.405808925628662	7.362154960632324	11.64898204803467	7.32166576385498	6.547441482543945	8.11923885345459	7.23797607421875	8.922029495239258	9.31295108795166	8.053670883178711	10.91162300109863	8.389509201049805	7.482108592987061	8.874635696411133	7.15161657333374	9.038965225219727	6.703957557678223	8.249817848205566	8.705175399780273	8.345890998840332	7.024978637695312	7.510839462280273	7.515510559082031	8.553706169128418	7.866214752197266	7.739601612091064	7.994105339050293	8.568637847900391	8.118243217468262	7.109745979309082	7.689541339874268	11.00637054443359	8.277370452880859	10.35764455795288
105	120	7.376237392425537	6.816531658172607	7.194247245788574	12.79306507110596	8.58748722076416	6.419445514678955	7.755457878112793	5.461386680603027	7.463034152984619	8.251644134521484	9.924903869628906	8.475112915039062	6.113000869750977	7.910428524017334	11.13026237487793	6.523410797119141	7.434348106384277	12.00526523590088	7.773720264434814	6.395637989044189	7.023470878601074	6.122560501098633	8.252553939819336	6.47746467590332	7.97316837310791	6.646981239318848	13.05593681335449	7.453527450561523	8.727550506591797	10.22045612335205	7.407425403594971	15.12545776367188	10.50363922119141	7.996712207794189	8.535954475402832	8.19255256652832	10.55303859710693	9.927410125732422	9.073271751403809	9.965877532958984	8.849086761474609	10.64548015594482	12.51494407653809	9.130451202392578	11.08931446075439	9.193021774291992	9.298781394958496	8.407893180847168	9.047113418579102	10.45254802703857	10.72864151000977	9.246677398681641	12.27947330474854	10.45511627197266	8.071123123168945	9.840265274047852	9.811590194702148	9.982930183410645	9.954039573669434	9.332359313964844	10.17007350921631	10.23871040344238	9.755925178527832	11.87576198577881	10.67672443389893	11.45929431915283	9.6007080078125	9.826995849609375	8.041513442993164	8.470348358154297	11.94023418426514	7.195483684539795	8.937006950378418	9.860709190368652	9.02949333190918	11.2488317489624	11.1004695892334	8.924412727355957	12.18569374084473	8.860482215881348	9.322521209716797	7.99288272857666	8.649107933044434	10.59164524078369	9.331178665161133	9.141435623168945	12.28799152374268	8.742924690246582	7.139626026153564	9.34161376953125	9.915412902832031	7.27937126159668	8.758578300476074	8.846978187561035	10.06927871704102	10.52548599243164	9.295493125915527	6.39470386505127	9.158670425415039	12.40454578399658	9.361950874328613	12.35239744186401
120	135	8.301071166992188	7.81780481338501	8.45988655090332	14.79543304443359	10.16578769683838	6.75066089630127	9.031767845153809	8.986571311950684	8.319878578186035	8.811468124389648	7.873148441314697	8.268590927124023	11.47375583648682	8.677793502807617	10.77702236175537	7.755698680877686	8.292957305908203	14.49301815032959	8.146859169006348	7.338864326477051	8.028297424316406	5.941980838775635	8.637997627258301	7.844635963439941	7.952049732208252	8.437594413757324	14.89903163909912	8.820705413818359	10.18501567840576	13.87998008728027	7.609034061431885	17.65022087097168	12.55013751983643	11.35927677154541	8.961546897888184	9.759183883666992	12.73349857330322	9.875253677368164	10.06384468078613	11.48319149017334	11.47118186950684	13.94531345367432	15.04057216644287	10.28689956665039	14.18198776245117	9.535984992980957	9.94780158996582	9.300344467163086	11.62639808654785	11.42149925231934	11.21953296661377	11.6175012588501	15.25491714477539	11.34726142883301	9.182676315307617	11.58761024475098	10.77628040313721	9.122076988220215	10.83443069458008	10.78873157501221	11.34805774688721	11.62055587768555	11.65927124023438	10.74659061431885	12.57524013519287	14.89351177215576	10.36976146697998	11.87235164642334	9.299807548522949	10.12594985961914	15.82775115966797	9.268734931945801	10.34007549285889	10.84893226623535	10.44877052307129	11.71113014221191	13.42195224761963	9.186219215393066	14.53214836120605	10.31998634338379	10.46969032287598	10.19080352783203	9.572719573974609	12.56892395019531	10.41898632049561	10.87655258178711	13.12090301513672	11.05162620544434	9.541309356689453	10.45699787139893	12.16535186767578	8.803903579711914	10.92056560516357	10.20598983764648	11.90506172180176	12.68915176391602	11.32067012786865	10.37367820739746	7.577689170837402	13.41885566711426	10.47296237945557	14.55105638504028
135	150	9.069188117980957	8.19371509552002	8.622576713562012	15.4831485748291	10.73789310455322	8.837425231933594	8.525446891784668	7.825751781463623	8.608097076416016	8.690003395080566	9.212615966796875	9.330020904541016	10.41836261749268	8.759794235229492	12.94715881347656	8.046518325805664	8.758403778076172	14.44244766235352	9.327438354492188	6.458143711090088	9.193634033203125	6.450254917144775	11.08356380462646	6.984004020690918	8.11609935760498	8.793211936950684	13.98190879821777	9.786110877990723	11.09426021575928	13.98804569244385	8.452558517456055	17.33057975769043	13.9237003326416	11.03227710723877	10.39334964752197	10.65324592590332	13.54780960083008	9.902007102966309	11.89726161956787	13.01529502868652	11.00013637542725	13.26995372772217	15.50515460968018	9.728161811828613	13.09826374053955	10.1655855178833	11.12406921386719	8.891463279724121	11.12027645111084	12.32040119171143	9.874166488647461	11.50654411315918	14.36759567260742	11.90372180938721	10.37121963500977	11.44752025604248	12.54077243804932	10.48894023895264	11.86244869232178	11.2277889251709	12.88815116882324	12.17971420288086	12.4599142074585	10.28408241271973	10.55588817596436	12.29069995880127	9.818527221679688	13.34828853607178	9.327217102050781	10.4846134185791	17.20959281921387	9.474385261535645	10.90864562988281	11.77960109710693	10.92205810546875	12.44974517822266	13.2648401260376	9.351140022277832	15.80055809020996	10.39676475524902	10.55947589874268	10.13200759887695	11.93313312530518	12.04406642913818	10.56720066070557	10.85135173797607	12.61871719360352	12.23949146270752	10.35117530822754	10.75564002990723	11.78495311737061	8.846526145935059	11.6329174041748	10.83169555664062	11.96142959594727	11.21647071838379	11.10123157501221	11.05304050445557	10.9970703125	14.4147891998291	10.94071674346924	15.00783824920654
150	165	9.880657196044922	8.42640495300293	9.567262649536133	15.28779220581055	12.38236713409424	9.472054481506348	9.885822296142578	9.462779998779297	9.090261459350586	9.414393424987793	8.601375579833984	9.01850700378418	10.17541217803955	8.904955863952637	12.36865711212158	8.193807601928711	8.706652641296387	15.14400863647461	9.207319259643555	6.22716760635376	9.709546089172363	6.750666618347168	8.255275726318359	6.164412975311279	9.482815742492676	8.426475524902344	16.26405715942383	10.12410354614258	11.61294174194336	17.60772895812988	7.468944549560547	16.88619613647461	14.75941753387451	13.41872215270996	10.24266529083252	10.5690279006958	14.07384014129639	9.509988784790039	11.01210308074951	12.03241062164307	11.33005332946777	13.40859603881836	15.26889133453369	11.31754589080811	16.03931045532227	9.592058181762695	11.12033653259277	7.873688697814941	11.55538463592529	12.13004302978516	11.38224315643311	12.39613342285156	13.0255765914917	12.43782138824463	9.919044494628906	11.9773473739624	11.85619354248047	9.283246994018555	11.80415058135986	12.42196750640869	12.56525707244873	12.28199672698975	12.34864044189453	13.43988990783691	9.245203971862793	11.81055927276611	10.08356761932373	12.07177734375	9.556334495544434	11.38313674926758	17.67999076843262	7.857907772064209	10.96195793151855	12.22986030578613	10.82205486297607	11.32334423065186	14.45532894134521	9.905312538146973	15.89271545410156	10.07282447814941	11.098219871521	10.31224346160889	10.96677780151367	11.83252239227295	10.37082767486572	11.93822574615479	16.40478515625	12.26664447784424	8.917802810668945	11.95567607879639	11.47150802612305	10.18341445922852	11.84056186676025	11.35025405883789	12.27459621429443	11.99160575866699	12.36235046386719	11.93862819671631	9.137548446655273	16.15338516235352	9.699873924255371	15.37400913238525
165	180	9.180974960327148	8.538092613220215	9.850419998168945	14.99740982055664	10.58368015289307	7.242099285125732	9.964642524719238	7.905527591705322	8.971657752990723	9.334917068481445	8.429981231689453	8.257362365722656	7.655520439147949	8.375880241394043	11.76558208465576	8.348554611206055	9.262757301330566	15.07835960388184	8.93826961517334	7.052590847015381	9.281977653503418	9.735139846801758	7.127519607543945	6.563128471374512	9.644036293029785	6.489081382751465	13.66873836517334	10.22110271453857	11.80936908721924	15.71992778778076	8.214834213256836	16.04636383056641	15.23958206176758	13.82994747161865	10.32043075561523	11.91889572143555	17.23737716674805	9.81080436706543	11.16733360290527	13.09958934783936	11.64504528045654	12.02471542358398	16.46037101745605	10.44878578186035	14.22474479675293	10.80004405975342	11.67098903656006	8.4066162109375	11.70347595214844	12.4067211151123	11.26384735107422	12.73177528381348	13.77943897247314	12.31289672851562	10.500168800354	13.26400470733643	12.33276748657227	9.676359176635742	12.28272914886475	11.77574062347412	11.84359073638916	11.75876045227051	13.30588150024414	11.89562034606934	9.225479125976562	12.87178707122803	10.57633018493652	13.14518928527832	9.341221809387207	11.64912700653076	14.98729801177979	6.745113372802734	10.89013385772705	12.9259090423584	10.6285228729248	12.97935581207275	14.37761974334717	9.773288726806641	14.89731311798096	10.31665134429932	11.60704135894775	8.358175277709961	10.00176048278809	12.87548732757568	11.28092384338379	11.88243293762207	13.27841663360596	12.32748222351074	9.936894416809082	11.77613067626953	11.63824272155762	10.31608104705811	11.82549953460693	11.37633514404297	12.18431663513184	12.05051231384277	11.47565078735352	13.36739158630371	9.106719970703125	13.71181011199951	10.38917541503906	15.32707118988037
180	195	9.837642669677734	8.944381713867188	9.368572235107422	14.61657905578613	10.45740699768066	8.53254508972168	9.976668357849121	9.709316253662109	8.264430046081543	9.146050453186035	8.167856216430664	8.212876319885254	8.250972747802734	9.376880645751953	8.788743019104004	8.707347869873047	8.914178848266602	15.2208948135376	9.466604232788086	7.657135009765625	10.10464572906494	9.131819725036621	8.702877044677734	6.886523723602295	10.70635223388672	8.048081398010254	14.45818710327148	10.24620723724365	11.89742851257324	13.33382225036621	9.324055671691895	15.40822696685791	15.52423286437988	11.78537559509277	10.5783748626709	10.78629684448242	15.00484943389893	9.50971508026123	11.06847381591797	13.34121322631836	11.5417308807373	13.66801452636719	15.77076530456543	10.66818523406982	15.65340232849121	10.96882343292236	12.11800670623779	8.638455390930176	12.31288051605225	12.91174697875977	11.91120147705078	10.88607883453369	16.04513359069824	13.89623737335205	9.502405166625977	13.87211227416992	12.2017650604248	11.03274726867676	11.96499156951904	12.46436786651611	12.62109851837158	12.24549961090088	13.4005012512207	12.49362373352051	10.59642505645752	11.02270698547363	8.916510581970215	14.17262554168701	8.384872436523438	10.64657402038574	17.22195434570312	8.589053153991699	10.83268547058105	13.41331577301025	10.41792964935303	13.38658142089844	14.98269748687744	9.447550773620605	14.22434520721436	10.97160148620605	10.75971698760986	8.277690887451172	11.87306976318359	11.71455001831055	11.74545001983643	12.26477718353271	14.93893337249756	12.447829246521	9.400568008422852	12.18008613586426	12.21072006225586	10.04078578948975	12.10368633270264	12.21280479431152	12.81781482696533	12.1823558807373	12.3412389755249	11.98518085479736	8.125399589538574	11.29552936553955	9.974069595336914	15.34132862091064
195	210	9.967926979064941	9.07766056060791	9.612593650817871	15.30685520172119	10.88487434387207	7.405539035797119	11.21423530578613	8.531682014465332	8.629009246826172	9.160070419311523	9.73538875579834	8.333145141601562	11.35000133514404	7.583765029907227	8.552525520324707	8.702330589294434	9.10944652557373	15.65152359008789	10.17411804199219	7.456564903259277	10.54919910430908	10.1122465133667	8.431581497192383	6.076955318450928	6.959708690643311	7.26988410949707	13.30562305450439	10.4461555480957	11.95757579803467	15.24444675445557	8.279281616210938	15.38744068145752	15.86153507232666	13.76251125335693	9.386735916137695	10.99874019622803	14.45578670501709	10.73585510253906	11.22037601470947	13.07621669769287	12.41750431060791	12.30183887481689	15.63157176971436	11.30615425109863	14.40471839904785	11.50127792358398	12.0835018157959	11.35692596435547	11.49776077270508	12.16391658782959	14.11837196350098	12.26733779907227	14.37275505065918	13.09119033813477	12.58120727539062	13.47723007202148	13.12917423248291	11.40016078948975	13.12684059143066	11.57320213317871	13.83901596069336	12.46994781494141	13.4811897277832	12.26664352416992	10.44162368774414	11.7060604095459	10.852126121521	13.62773704528809	8.140476226806641	11.70816135406494	14.21797847747803	10.48263072967529	11.89014720916748	12.75887298583984	11.04475498199463	12.47830486297607	15.18828678131104	9.801936149597168	14.94940567016602	10.95004653930664	11.98457717895508	10.20062637329102	10.13705921173096	11.78566932678223	11.98360824584961	11.40889167785645	13.54477596282959	12.59112071990967	9.478865623474121	12.38746643066406	12.13943481445312	9.108108520507812	12.75527286529541	12.50881958007812	12.85288143157959	13.00748348236084	12.82750606536865	12.66582870483398	11.41852283477783	14.48997020721436	10.22264289855957	15.94995021820068
210	225	10.42344665527344	8.928770065307617	10.25911903381348	15.27485752105713	10.78682041168213	8.816572189331055	11.18233299255371	8.392000198364258	8.381559371948242	9.538506507873535	8.607597351074219	8.080694198608398	9.414346694946289	9.187448501586914	7.598619937896729	9.01712703704834	10.79792881011963	15.19415950775146	10.49282169342041	6.431146144866943	11.1428050994873	8.5380859375	9.491205215454102	6.613027095794678	8.793457984924316	8.826618194580078	8.807538986206055	10.01707935333252	12.0008020401001	14.52883052825928	7.461073875427246	14.94795989990234	15.95712184906006	13.90904521942139	9.944048881530762	11.52319145202637	15.88411426544189	10.77151870727539	11.0304708480835	13.45956134796143	12.48462867736816	14.23985862731934	16.13315963745117	11.1209135055542	14.57949924468994	10.98961067199707	12.26086807250977	6.999767303466797	11.69494533538818	13.82271099090576	12.56115436553955	12.63120460510254	16.16188049316406	13.53803730010986	9.788373947143555	12.79503917694092	11.39078998565674	11.03598403930664	12.99466228485107	12.02090167999268	13.02594757080078	12.26751518249512	13.21840667724609	14.51208019256592	11.64951801300049	9.061078071594238	9.539018630981445	14.53073596954346	8.790702819824219	12.5885181427002	16.28121757507324	7.86780309677124	11.24696159362793	13.38408374786377	11.37446403503418	12.63141632080078	15.17972660064697	10.31797409057617	15.84930992126465	10.86652088165283	11.36776733398438	8.955942153930664	11.24920749664307	11.88756370544434	12.63542556762695	12.20314693450928	17.10231781005859	13.12338066101074	11.48481178283691	12.04612159729004	13.24823665618896	11.10681629180908	12.91499900817871	12.50195789337158	13.11839866638184	12.91153907775879	12.84103870391846	12.64712429046631	8.684544563293457	10.96395492553711	9.35091495513916	15.72751426696777
