frame_start	frame_end	highbinding	left_cerebral_white_matter	left_cerebellum_white_matter	left_cerebellum_cortex	left_thalamus	left_caudate	left_putamen	left_pallidum	brain_stem	left_hippocampus	left_amygdala	csf	left_accumbens_area	left_ventraldc	left_choroid_plexus	right_cerebral_white_matter	right_cerebellum_white_matter	right_cerebellum_cortex	right_thalamus	right_caudate	right_putamen	right_pallidum	right_hippocampus	right_amygdala	right_accumbens_area	right_ventraldc	right_choroid_plexus	aircavity	skull	vermis	pons	csf_extracerebral	head_extracerebral	ctx_lh_bankssts	ctx_lh_caudalanteriorcingulate	ctx_lh_caudalmiddlefrontal	ctx_lh_cuneus	ctx_lh_entorhinal	ctx_lh_fusiform	ctx_lh_inferiorparietal	ctx_lh_inferiortemporal	ctx_lh_isthmuscingulate	ctx_lh_lateraloccipital	ctx_lh_lateralorbitofrontal	ctx_lh_lingual	ctx_lh_medialorbitofrontal	ctx_lh_middletemporal	ctx_lh_parahippocampal	ctx_lh_paracentral	ctx_lh_parsopercularis	ctx_lh_parsorbitalis	ctx_lh_parstriangularis	ctx_lh_pericalcarine	ctx_lh_postcentral	ctx_lh_posteriorcingulate	ctx_lh_precentral	ctx_lh_precuneus	ctx_lh_rostralanteriorcingulate	ctx_lh_rostralmiddlefrontal	ctx_lh_superiorfrontal	ctx_lh_superiorparietal	ctx_lh_superiortemporal	ctx_lh_supramarginal	ctx_lh_frontalpole	ctx_lh_temporalpole	ctx_lh_transversetemporal	ctx_lh_insula	ctx_rh_bankssts	ctx_rh_caudalanteriorcingulate	ctx_rh_caudalmiddlefrontal	ctx_rh_cuneus	ctx_rh_entorhinal	ctx_rh_fusiform	ctx_rh_inferiorparietal	ctx_rh_inferiortemporal	ctx_rh_isthmuscingulate	ctx_rh_lateraloccipital	ctx_rh_lateralorbitofrontal	ctx_rh_lingual	ctx_rh_medialorbitofrontal	ctx_rh_middletemporal	ctx_rh_parahippocampal	ctx_rh_paracentral	ctx_rh_parsopercularis	ctx_rh_parsorbitalis	ctx_rh_parstriangularis	ctx_rh_pericalcarine	ctx_rh_postcentral	ctx_rh_posteriorcingulate	ctx_rh_precentral	ctx_rh_precuneus	ctx_rh_rostralanteriorcingulate	ctx_rh_rostralmiddlefrontal	ctx_rh_superiorfrontal	ctx_rh_superiorparietal	ctx_rh_superiortemporal	ctx_rh_supramarginal	ctx_rh_frontalpole	ctx_rh_temporalpole	ctx_rh_transversetemporal	ctx_rh_insula	reference
0	15	0	0	0	0	0	0	0	0	0	0	0	0	0	0	0	0	0	0	0	0	0	0	0	0	0	0	0	0	0	0	0	0	0	0	0	0	0	0	0	0	0	0	0	0	0	0	0	0	0	0	0	0	0	0	0	0	0	0	0	0	0	0	0	0	0	0	0	0	0	0	0	0	0	0	0	0	0	0	0	0	0	0	0	0	0	0	0	0	0	0	0	0	0	0	0	0	0	0	0	0	0	0
15	30	0.035811334848404	0.01983390189707279	0.002374052768573165	0.006567399483174086	0.03741705790162086	0.02236714772880077	0.01835939101874828	0.01420799922198057	0.0005801937077194452	5.056067675468512e-05	0.06193265691399574	0.01285418123006821	0.01995320245623589	0.01319935452193022	0.08397901803255081	0.01723065227270126	0.0002660130558069795	0.006770905572921038	0.03351789340376854	0.0280250683426857	0.03920514136552811	0.006931426003575325	0.009110745042562485	0.01254934072494507	0.0001782705076038837	0.03486210852861404	0.00912153348326683	0.002758275950327516	0.00529422564432025	0.001140175154432654	7.271615686477162e-06	0.0155239999294281	0.004820405971258879	0.01291384547948837	1.722855529351364e-07	0.0004300628206692636	0.0006887324270792305	0.005394313484430313	0.0699969083070755	0.02225348353385925	0.007884619757533073	0.04629595205187798	0.01406317111104727	0.007118843495845795	0.0002742718206718564	0.04444023221731186	0.02721813134849072	0.0005400886293500662	0.001822636811994016	0.01277132797986269	0.1008266434073448	0.03342564776539803	0.0588967353105545	0.04500944167375565	0.02816884778439999	0.00296284444630146	0.003803586354479194	0.0008847337448969483	0.01856261491775513	0.008771470747888088	0.00280649377964437	0.05312389880418777	0.00361516629345715	0.02978611923754215	0.1226222887635231	0.07052266597747803	0.07208237797021866	0.02909639105200768	5.048585080658086e-05	0.004625685513019562	0.006226353347301483	0.002804810181260109	0.003928546793758869	0.02376216091215611	0.00896878819912672	0.001220628735609353	0.02339061535894871	0.01641546189785004	0.002774867927655578	0.03992109373211861	0.008814391680061817	0.0003993254795204848	0.009294078685343266	0.01744943484663963	0.01403209567070007	0.02591393701732159	0.001446372480131686	0.006254707928746939	0.002794804982841015	0.03747085854411125	0.004713835660368204	0.0400988943874836	0.02845512703061104	0.0006799057009629905	0.04264278709888458	0.01415769662708044	0.003824115497991443	0.00459574069827795	0.0005798350903205574	0.01926312036812305	0.01912450231611729	0.006207406055182
30	45	0.731419682502747	0.5334608554840088	0.5360612869262695	0.6885527372360229	0.7113704681396484	0.5435724854469299	0.7915438413619995	1.081351399421692	0.6318575143814087	0.8730416893959045	1.075846791267395	0.5460767149925232	0.4552871882915497	0.9207377433776855	0.5974084138870239	0.5631458163261414	0.4659667611122131	0.8558180928230286	0.8551926016807556	0.213787630200386	1.078446269035339	0.5927221775054932	0.7886478304862976	1.033335089683533	0.5939191579818726	1.079614281654358	0.8414906859397888	0.6472141742706299	0.6559758186340332	0.6807039976119995	0.7761523127555847	1.303539037704468	0.7638368010520935	0.7482115030288696	0.9650752544403076	0.6224428415298462	0.8169463276863098	1.017040252685547	0.5886829495429993	0.626255214214325	0.4930144846439362	0.6448635458946228	0.981434166431427	0.7758171558380127	0.9323326349258423	1.033357620239258	0.7679772973060608	0.7267616391181946	0.7222546935081482	1.086437106132507	1.241417050361633	0.675816535949707	0.5026583671569824	0.9608874917030334	0.7189501523971558	0.7215834259986877	0.6211351752281189	1.02163290977478	0.8034201860427856	0.7635484933853149	0.6897886991500854	1.199534773826599	0.8128383159637451	0.6306450366973877	1.337350606918335	1.237774014472961	1.000835180282593	1.167372107505798	0.6448110938072205	0.7379100918769836	0.6508294939994812	0.5908507108688354	0.7451885342597961	0.6810455322265625	0.5043944716453552	0.8005154728889465	0.8372037410736084	0.8527389764785767	1.09222948551178	0.7700023055076599	0.8031895756721497	1.093416571617126	0.6909912824630737	0.920878529548645	0.8757644891738892	0.9733005166053772	0.8284996747970581	0.862759530544281	0.9412786960601807	0.6472262144088745	0.6075308918952942	0.7251997590065002	0.8155385255813599	0.7179372310638428	0.8969264626502991	1.109472513198853	0.6992629766464233	0.4631780385971069	0.7926974296569824	2.105116844177246	1.146889448165894	0.733459800481796
45	60	2.269778728485107	1.687501788139343	1.568578362464905	2.606157779693604	2.223763227462769	1.732152104377747	2.485994815826416	1.694137215614319	2.002116918563843	3.095360040664673	2.133203029632568	1.494228959083557	1.333006262779236	2.227535247802734	5.015048027038574	1.614351749420166	1.734758257865906	3.270773649215698	2.367424249649048	1.747420430183411	2.211768865585327	1.46700131893158	2.724129676818848	2.386430501937866	2.113470554351807	2.328503608703613	3.995859861373901	2.276567935943604	2.349177837371826	2.781349420547485	2.275512456893921	4.294578075408936	2.517606258392334	2.299675464630127	2.715550661087036	2.293795585632324	2.775230169296265	1.74164605140686	2.327637910842896	2.271897554397583	2.07905912399292	3.323146104812622	3.410745143890381	2.606512546539307	3.486518144607544	3.158434629440308	2.248173236846924	2.450994968414307	1.97126293182373	3.11434268951416	2.318135499954224	2.565454483032227	2.449979305267334	2.698363780975342	2.606994152069092	2.242233753204346	2.334778070449829	2.926215887069702	2.017774820327759	2.314167022705078	2.234066963195801	2.89984655380249	2.448099374771118	2.353884696960449	2.034409046173096	3.18956995010376	3.468571901321411	2.736294269561768	3.267602443695068	2.718777418136597	2.703969955444336	1.952465772628784	2.549432277679443	2.252635478973389	2.190250158309937	2.605125188827515	2.729951858520508	2.444305896759033	3.68560004234314	2.484448194503784	2.292925357818604	2.670494794845581	2.140605688095093	2.633853197097778	2.783062696456909	2.133910655975342	2.142660140991211	2.186763763427734	2.611169815063477	2.367282390594482	2.520877361297607	2.315763711929321	2.076731204986572	2.537484169006348	2.592395067214966	2.658360958099365	2.293368339538574	3.025248289108276	3.056926250457764	3.810613632202148	2.708429574966431	2.809862494468689
60	75	3.180315732955933	2.692354440689087	2.704871654510498	4.253738403320312	3.696341276168823	2.163418054580688	2.978690147399902	3.329566717147827	3.450904607772827	4.160561561584473	3.108066082000732	2.583370447158813	2.87435507774353	4.027458190917969	6.100613594055176	2.632761240005493	2.843212127685547	5.246855735778809	3.659635782241821	2.224202871322632	3.848551988601685	3.051470518112183	4.161480903625488	3.024909734725952	3.491599559783936	4.056481838226318	6.288274765014648	3.758381605148315	4.026656627655029	3.413031101226807	3.499814748764038	6.51047420501709	4.244145393371582	3.265782356262207	3.606596708297729	3.777856588363647	4.504197597503662	3.592335224151611	3.724798202514648	3.884063243865967	3.257603883743286	4.795204162597656	5.859581470489502	3.541505098342896	5.177927494049072	4.589414596557617	3.767968416213989	3.359417676925659	3.780227661132812	4.243532180786133	3.627058506011963	3.918686151504517	4.063098907470703	4.15138053894043	3.626296758651733	3.725483179092407	3.403022766113281	4.371165752410889	3.543088912963867	4.036773204803467	3.842297077178955	4.198648929595947	4.070216655731201	3.515573263168335	3.643783807754517	6.512218475341797	4.828776836395264	4.629219532012939	4.51529598236084	3.653151512145996	4.521728038787842	3.644029855728149	3.775210380554199	3.852355718612671	3.242714881896973	4.573303699493408	4.94068717956543	3.859091520309448	5.915698051452637	4.510599136352539	3.613874912261963	5.172903537750244	3.703387975692749	4.89394474029541	3.662312984466553	3.982108116149902	3.512126684188843	3.747392177581787	3.467937469482422	3.527670383453369	4.012857437133789	3.960790634155273	3.517487525939941	4.083138465881348	4.524196147918701	4.346014976501465	3.99232816696167	3.563694715499878	3.050530910491943	6.362709999084473	3.926831007003784	4.647768974304199
75	90	5.283426761627197	4.129435539245605	4.27757453918457	6.655200004577637	6.135929107666016	4.411651611328125	5.035216331481934	3.92113208770752	4.731095314025879	6.536240100860596	4.973770618438721	3.372453927993774	3.910964727401733	6.118973731994629	6.72221851348877	3.956967353820801	3.977201461791992	7.803772926330566	5.453821659088135	3.234618663787842	5.232519149780273	3.825734376907349	6.531318187713623	4.143219470977783	5.520751476287842	5.520415782928467	7.70871639251709	5.664379596710205	6.069489479064941	5.641190052032471	5.733558654785156	9.211935997009277	6.26517391204834	5.263973236083984	5.938600540161133	5.20020866394043	7.676018714904785	4.63648509979248	5.533571720123291	5.163031101226807	4.826076984405518	5.913059711456299	8.708635330200195	5.100635528564453	7.504628658294678	6.649002552032471	6.094892501831055	5.201652526855469	5.610160350799561	6.203680992126465	5.727170467376709	5.672950744628906	7.11774206161499	5.6289963722229	5.694940090179443	5.222121238708496	5.664459228515625	6.348970413208008	5.514456748962402	5.831376075744629	5.98665189743042	6.587285995483398	5.557116985321045	7.202662467956543	4.285598754882812	8.245033264160156	7.165889263153076	5.497698783874512	4.244083404541016	5.264789581298828	6.560842990875244	4.430952072143555	5.244637489318848	5.085466384887695	5.105756282806396	5.758652687072754	6.508828163146973	5.963489055633545	7.807633876800537	5.808023929595947	5.512523651123047	6.021646499633789	6.032477855682373	5.885781288146973	6.065193653106689	5.701253890991211	5.351973533630371	5.350532054901123	5.251777172088623	5.226979732513428	5.30677604675293	6.766520977020264	5.375208377838135	5.439579963684082	6.222412109375	6.198569297790527	5.40282154083252	5.956111431121826	4.300475120544434	8.983074188232422	6.712921619415283	7.174403190612793
90	105	7.273102760314941	5.118386745452881	5.759949207305908	8.234861373901367	7.2459716796875	5.168587684631348	7.579681396484375	6.048397541046143	6.08197546005249	7.925783634185791	5.510838985443115	4.447648048400879	8.624929428100586	7.832046031951904	10.55503940582275	5.067886829376221	5.048395156860352	9.71269416809082	7.789589405059814	5.087638854980469	6.881212711334229	5.30549955368042	7.351568222045898	5.715848445892334	4.623348712921143	6.437147617340088	8.773476600646973	7.263513565063477	7.848612785339355	6.55260181427002	5.751701354980469	10.79332637786865	8.255681991577148	7.411341190338135	7.404992580413818	6.514459609985352	9.10439395904541	8.119293212890625	6.648719787597656	7.014748573303223	6.969592571258545	6.794203281402588	10.60857677459717	7.034470081329346	8.22160530090332	7.601085186004639	6.587371826171875	5.826010704040527	6.025578498840332	7.68492603302002	7.632779598236084	7.851343631744385	7.81577205657959	7.028881549835205	5.902720928192139	6.748389720916748	6.909727573394775	7.741312980651855	7.613731861114502	7.068390369415283	7.628684997558594	7.871303081512451	7.207542896270752	7.676492691040039	5.509929180145264	9.899147987365723	7.84103536605835	6.458137035369873	7.10105037689209	6.970701694488525	7.651432037353516	5.467891693115234	6.435341835021973	7.120382785797119	6.599287509918213	6.774550914764404	8.647819519042969	7.106611728668213	9.485018730163574	7.06988525390625	6.974972724914551	6.259396076202393	7.203048706054688	8.061397552490234	7.247489452362061	7.039663314819336	7.648128509521484	6.798873901367188	6.456127166748047	6.651520729064941	6.551056385040283	7.184243679046631	7.515814304351807	7.035688877105713	7.331123352050781	7.265864849090576	7.005222320556641	7.612463474273682	5.773928642272949	10.13182926177979	6.831739902496338	8.943697929382324
105	120	7.23266077041626	6.136866092681885	6.43268871307373	9.310274124145508	7.486490726470947	4.349544048309326	7.247481346130371	7.033022880554199	6.048737049102783	8.243318557739258	6.505763530731201	4.755914211273193	7.053804397583008	7.71008825302124	11.35238361358643	6.05314302444458	6.696288585662842	11.26437759399414	7.634519100189209	6.411784648895264	7.75316858291626	5.296828269958496	8.807759284973145	6.304625034332275	7.520698547363281	6.984466075897217	10.85003566741943	8.673454284667969	9.501438140869141	7.480327129364014	6.954391002655029	11.97269916534424	10.10000324249268	7.992135047912598	8.351097106933594	8.042612075805664	9.975876808166504	7.947332382202148	8.041167259216309	8.716920852661133	7.880604267120361	10.24010944366455	11.96678161621094	8.069646835327148	10.86100482940674	8.996195793151855	8.319808959960938	5.649463176727295	6.836984634399414	8.446823120117188	8.516500473022461	8.281649589538574	9.00423526763916	9.087578773498535	7.26849889755249	8.630488395690918	8.460894584655762	7.945492267608643	8.181768417358398	8.421137809753418	8.649105072021484	8.698519706726074	8.810866355895996	8.957388877868652	7.217435359954834	9.63613224029541	9.660634994506836	9.147489547729492	8.046652793884277	9.282694816589355	9.883945465087891	5.414731979370117	7.295807838439941	8.238078117370605	7.51625394821167	9.125687599182129	9.76024341583252	8.240056991577148	10.16623878479004	8.057226181030273	7.868878364562988	8.512356758117676	8.512040138244629	9.068141937255859	7.939201354980469	7.944931983947754	8.406205177307129	7.820690155029297	8.518506050109863	7.903738021850586	8.461325645446777	7.313724040985107	8.055084228515625	8.065741539001465	9.511137008666992	9.143295288085938	8.134090423583984	9.853896141052246	6.835587501525879	9.671021461486816	7.842972755432129	10.30707693099976
120	135	9.450477600097656	8.105939865112305	8.22988224029541	12.75361061096191	10.09646415710449	6.167388916015625	10.61990737915039	8.574973106384277	8.77578067779541	13.02110576629639	9.92171573638916	6.058181762695312	11.78990650177002	10.59512996673584	17.64653205871582	7.676053047180176	7.290781021118164	14.58332443237305	10.98843097686768	6.070847511291504	9.933539390563965	8.275435447692871	11.15289402008057	9.06761646270752	11.47287559509277	9.552038192749023	15.76174259185791	11.16585922241211	12.23150157928467	10.02797031402588	9.355732917785645	15.84422302246094	13.07783508300781	8.517688751220703	10.98238372802734	9.037687301635742	14.757887840271	11.82480144500732	10.19352626800537	12.0568265914917	9.568293571472168	10.07493877410889	16.51875495910645	9.904562950134277	14.09460353851318	11.37030696868896	10.26588726043701	9.5050048828125	10.24094295501709	11.89512920379639	11.15840816497803	11.14782238006592	13.97928142547607	11.71724319458008	10.24756908416748	10.68368148803711	10.10374641418457	12.39524841308594	10.92269611358643	11.69529628753662	11.23039722442627	12.18135261535645	11.13597965240479	12.26204204559326	8.446199417114258	13.73186874389648	11.73017024993896	10.28865337371826	10.1371374130249	11.55694675445557	14.86713314056396	6.681029319763184	9.974262237548828	11.33771324157715	9.798967361450195	11.17340564727783	12.6743278503418	10.16534042358398	14.17674160003662	10.30946731567383	10.30544376373291	8.307165145874023	10.57273387908936	11.25745105743408	11.12676334381104	11.74982070922852	9.775361061096191	10.19227600097656	9.81400203704834	10.76596355438232	10.4824743270874	10.53116512298584	10.73537349700928	10.6970796585083	12.77750778198242	10.23877429962158	11.78484725952148	10.64694118499756	9.990718841552734	13.77030372619629	11.47805213928223	13.73013496398926
135	150	10.22309112548828	8.584541320800781	9.412114143371582	13.1605281829834	12.2497730255127	7.721295356750488	10.06748104095459	10.45724296569824	8.69735050201416	12.13258075714111	9.871925354003906	6.468471050262451	14.88564300537109	10.14262866973877	17.82669639587402	8.281115531921387	8.79133415222168	15.60164833068848	11.44919013977051	7.767716407775879	8.829541206359863	8.203341484069824	10.28797245025635	7.338323593139648	11.25579166412354	11.06357574462891	17.31034660339355	12.0428352355957	13.46878814697266	11.57571983337402	10.22116661071777	16.49692153930664	14.3403377532959	11.64009094238281	9.989513397216797	12.22348785400391	14.08516788482666	10.20043468475342	10.29195213317871	11.62600994110107	10.90080070495605	11.6512565612793	16.53981018066406	11.22154903411865	12.91228008270264	13.20512008666992	10.88649559020996	8.404569625854492	11.52837562561035	11.19361782073975	12.0804557800293	12.08867835998535	12.41408824920654	12.67292022705078	8.685174942016602	11.68504810333252	10.36119556427002	10.94242477416992	11.42631244659424	12.27730274200439	12.13811016082764	11.95584678649902	12.01364898681641	12.33478927612305	8.214102745056152	15.55024909973145	12.22110652923584	10.84394836425781	9.08206844329834	11.80473613739014	15.39159870147705	9.043746948242188	10.7696361541748	11.69159412384033	9.394676208496094	9.628508567810059	13.14145088195801	11.88577938079834	15.53619289398193	11.46022129058838	11.00493717193604	9.370029449462891	12.06765079498291	12.80935668945312	13.09856224060059	13.3597583770752	11.98869800567627	11.9116849899292	10.2642822265625	11.00416469573975	11.7239351272583	10.89165878295898	11.30653667449951	11.6399621963501	13.2204647064209	11.32876873016357	11.35243701934814	13.96136951446533	7.762253284454346	14.22461700439453	11.3244457244873	14.40677356719971
150	165	11.18988418579102	9.179042816162109	10.08053398132324	13.70725536346436	12.3881139755249	8.416136741638184	9.769474029541016	12.25793266296387	9.664843559265137	9.999171257019043	9.298952102661133	6.28809928894043	10.69254112243652	12.44958305358887	10.66467761993408	8.91975212097168	9.668936729431152	15.65083503723145	11.76415920257568	8.33084774017334	10.96488380432129	8.670116424560547	12.19011878967285	8.248950004577637	9.214559555053711	9.877208709716797	10.60029697418213	12.43420314788818	14.08590507507324	12.77433395385742	10.12668228149414	16.30262184143066	15.14088726043701	11.80733013153076	11.57850074768066	11.91682720184326	15.18122959136963	9.097304344177246	11.43521404266357	13.40890693664551	11.17174625396729	13.33339214324951	17.72866630554199	11.23630046844482	15.54787826538086	11.16083431243896	12.2812328338623	11.33845901489258	10.76096630096436	12.6865291595459	13.38775730133057	12.56548881530762	13.60608005523682	12.42736530303955	11.30909442901611	12.05870628356934	12.08633041381836	12.56989479064941	12.47794246673584	12.62544345855713	12.59754085540771	12.56698989868164	13.04548263549805	12.75340843200684	10.63328075408936	14.45873355865479	11.82181262969971	13.18494033813477	9.704893112182617	12.97676849365234	14.40319919586182	6.862135410308838	11.5266227722168	12.06588268280029	11.69100475311279	11.53426074981689	14.15455055236816	12.09951591491699	15.36618614196777	12.85317516326904	12.65985202789307	11.01176166534424	12.24936580657959	11.91114521026611	12.67222023010254	11.48189830780029	14.66616916656494	11.49093532562256	10.16116905212402	12.21910762786865	12.29447364807129	11.2866907119751	12.50677680969238	11.82249164581299	13.27579402923584	12.43860912322998	12.30299282073975	11.78183364868164	8.614766120910645	17.24456214904785	12.15969181060791	14.76866722106934
165	180	10.66863632202148	9.494174957275391	9.992271423339844	14.06488513946533	10.9750919342041	7.290594100952148	11.04054164886475	11.59175395965576	8.845083236694336	11.7201681137085	9.235110282897949	6.386443138122559	14.91584587097168	10.91179752349854	14.33737087249756	9.193707466125488	10.67801952362061	15.92647266387939	11.84312057495117	7.300556659698486	11.63600921630859	10.0174617767334	11.04241466522217	9.962093353271484	10.99347972869873	11.12042045593262	13.1951265335083	12.32156944274902	13.96919631958008	11.98782825469971	9.382280349731445	15.3221549987793	15.16090488433838	12.2204122543335	11.85035705566406	11.61622333526611	17.05051040649414	9.588198661804199	11.10415077209473	13.65956974029541	12.04541110992432	11.47809982299805	16.71391296386719	10.96338081359863	15.67194175720215	13.19559764862061	13.34072494506836	10.32838153839111	11.95252799987793	14.12085151672363	13.28297328948975	14.2159481048584	14.15484714508057	12.81973171234131	9.593172073364258	12.84999656677246	12.60568428039551	10.7175874710083	13.30344295501709	12.65480518341064	12.81504821777344	13.18930435180664	13.21802043914795	13.97396087646484	10.0881519317627	14.50564956665039	12.84947395324707	12.08533763885498	8.761207580566406	12.90723514556885	15.61801147460938	8.273801803588867	11.06028079986572	12.59184169769287	11.7142276763916	10.32965564727783	14.91592311859131	12.03810024261475	15.65828323364258	12.1842155456543	11.99368667602539	9.823083877563477	12.30702972412109	13.27236270904541	12.4056396484375	12.52834320068359	13.18437099456787	12.39994812011719	11.68107891082764	12.65738201141357	13.22852897644043	13.63437843322754	13.5935697555542	13.08989429473877	13.27826881408691	13.38752555847168	12.51875400543213	13.28459167480469	11.67605686187744	13.42585849761963	10.88474941253662	15.26806688308716
180	195	12.71307849884033	9.708161354064941	11.08123302459717	14.92366600036621	13.01709365844727	10.15732669830322	13.0005989074707	11.37106609344482	9.336554527282715	12.51334285736084	11.07034206390381	6.574382305145264	12.43407821655273	11.41625785827637	14.48000431060791	9.501198768615723	10.82959651947021	16.02545928955078	12.09648036956787	7.353046894073486	13.30986976623535	10.74258041381836	9.982972145080566	9.286890029907227	10.80520057678223	10.7939567565918	13.05747032165527	12.23356437683105	14.17650508880615	12.0652322769165	11.52640914916992	15.03758716583252	15.25144290924072	12.39910125732422	10.00450134277344	12.93014717102051	16.35929679870605	9.712569236755371	12.15668106079102	13.54089450836182	11.6354455947876	14.04740810394287	18.12492752075195	12.69972991943359	14.76077270507812	12.26482772827148	12.36294746398926	9.923995971679688	11.01521492004395	13.61644268035889	13.34716796875	12.94665718078613	16.21128273010254	13.28633213043213	12.0821533203125	13.35515594482422	12.7640495300293	11.52468872070312	13.77942180633545	12.74883651733398	12.17622184753418	13.13735771179199	13.15161418914795	13.54831600189209	9.540443420410156	12.71515846252441	11.55339908599854	11.03996086120605	12.48959159851074	14.02749729156494	14.50818920135498	7.549895286560059	12.00827980041504	13.11230278015137	11.1248140335083	10.95284652709961	14.65403461456299	12.4041862487793	16.34358787536621	12.13015937805176	12.8365535736084	8.376555442810059	11.46855354309082	13.42069816589355	11.65450572967529	13.3969841003418	14.7982931137085	12.80451583862305	12.7233772277832	12.63242816925049	12.26432609558105	11.10746002197266	13.87421894073486	13.22200775146484	14.04273509979248	12.40352439880371	13.11585235595703	13.39174270629883	9.497512817382812	16.18798637390137	11.58861923217773	15.87250995635986
195	210	12.21256542205811	9.963468551635742	10.85163021087646	15.02388858795166	13.19797039031982	8.078063011169434	12.52182865142822	12.86878299713135	9.572084426879883	13.33893299102783	9.851570129394531	6.163105964660645	8.676833152770996	12.73701095581055	15.53590106964111	9.758767127990723	10.28740882873535	16.33919525146484	12.57258701324463	8.03370189666748	13.32428073883057	12.05551528930664	12.12166500091553	8.481975555419922	11.79993343353271	12.63927268981934	15.11892604827881	12.20559310913086	14.11463260650635	11.30901908874512	10.51511001586914	14.75018978118896	15.32106399536133	11.61157035827637	11.95590782165527	12.53150844573975	16.3321647644043	9.703791618347168	12.21680641174316	13.38789844512939	12.10466194152832	12.54420185089111	18.47789001464844	11.57108402252197	15.35367774963379	12.70893287658691	12.61552143096924	8.607791900634766	11.89384174346924	14.29938793182373	13.99933052062988	15.12838649749756	15.39702320098877	12.88572597503662	11.93334102630615	13.3483362197876	13.46076774597168	12.63101196289062	13.14006614685059	13.33914470672607	13.19070339202881	13.74353218078613	13.74393558502197	11.91149520874023	8.51802921295166	16.45537376403809	11.78402233123779	13.19898223876953	10.3021936416626	14.0479736328125	16.60702323913574	7.735663890838623	12.27461910247803	13.1402587890625	11.79445934295654	10.04902744293213	14.85306549072266	12.70208644866943	15.99503517150879	11.73360538482666	12.68391513824463	9.740584373474121	12.7078914642334	13.73126411437988	12.58469486236572	13.03788089752197	14.58308410644531	12.71479511260986	11.81656837463379	13.27465629577637	13.12196159362793	11.64480209350586	13.64541625976562	12.95870208740234	13.49719047546387	13.33184432983398	13.49847793579102	14.64071750640869	10.85084915161133	15.28492450714111	10.73734760284424	16.19365882873535
210	225	11.86590766906738	10.49017238616943	11.53544425964355	15.34450721740723	11.8731861114502	8.248485565185547	11.2170467376709	9.397122383117676	9.546350479125977	11.62976551055908	10.38491439819336	6.555915355682373	10.661301612854	11.47275066375732	14.77209281921387	10.22956466674805	11.94742870330811	16.33326721191406	12.00412273406982	9.673611640930176	12.70165824890137	13.59931755065918	12.72759342193604	8.62850284576416	8.778087615966797	11.30879592895508	13.28988456726074	12.02780342102051	14.37975597381592	14.31163692474365	10.54718589782715	14.91738319396973	15.57576656341553	13.282057762146	10.94824028015137	13.74725914001465	16.57114410400391	10.08392429351807	12.13961887359619	13.9978494644165	12.60747718811035	11.78665065765381	18.32663154602051	13.65576171875	15.32576656341553	13.41757774353027	13.7114782333374	11.38905811309814	12.3017578125	15.19442558288574	13.90923309326172	15.12327480316162	16.74769020080566	13.72727870941162	12.268479347229	14.36305904388428	13.72066307067871	12.54995059967041	14.61350154876709	14.26225757598877	13.829665184021	13.07198429107666	14.1784610748291	14.50102806091309	10.14152145385742	14.94798278808594	13.10249996185303	15.0493631362915	9.121932029724121	13.51375389099121	14.71669387817383	8.547639846801758	12.073486328125	14.05284023284912	11.35262298583984	12.45079612731934	15.44779682159424	12.08542251586914	17.13104057312012	12.88180351257324	12.44470119476318	10.75995540618896	12.02666759490967	13.97784423828125	13.97794723510742	14.22462844848633	16.63018035888672	12.84356689453125	13.05678558349609	13.48751544952393	12.32800102233887	10.7884464263916	14.59118938446045	13.50094032287598	13.83331680297852	13.02572059631348	13.48889446258545	14.04914855957031	10.22600936889648	14.90844249725342	12.06524562835693	16.3207049369812
