frame_start	frame_end	highbinding	left_cerebral_white_matter	left_cerebellum_white_matter	left_cerebellum_cortex	left_thalamus	left_caudate	left_putamen	left_pallidum	brain_stem	left_hippocampus	left_amygdala	csf	left_accumbens_area	left_ventraldc	left_choroid_plexus	right_cerebral_white_matter	right_cerebellum_white_matter	right_cerebellum_cortex	right_thalamus	right_caudate	right_putamen	right_pallidum	right_hippocampus	right_amygdala	right_accumbens_area	right_ventraldc	right_choroid_plexus	aircavity	skull	vermis	pons	csf_extracerebral	head_extracerebral	ctx_lh_bankssts	ctx_lh_caudalanteriorcingulate	ctx_lh_caudalmiddlefrontal	ctx_lh_cuneus	ctx_lh_entorhinal	ctx_lh_fusiform	ctx_lh_inferiorparietal	ctx_lh_inferiortemporal	ctx_lh_isthmuscingulate	ctx_lh_lateraloccipital	ctx_lh_lateralorbitofrontal	ctx_lh_lingual	ctx_lh_medialorbitofrontal	ctx_lh_middletemporal	ctx_lh_parahippocampal	ctx_lh_paracentral	ctx_lh_parsopercularis	ctx_lh_parsorbitalis	ctx_lh_parstriangularis	ctx_lh_pericalcarine	ctx_lh_postcentral	ctx_lh_posteriorcingulate	ctx_lh_precentral	ctx_lh_precuneus	ctx_lh_rostralanteriorcingulate	ctx_lh_rostralmiddlefrontal	ctx_lh_superiorfrontal	ctx_lh_superiorparietal	ctx_lh_superiortemporal	ctx_lh_supramarginal	ctx_lh_frontalpole	ctx_lh_temporalpole	ctx_lh_transversetemporal	ctx_lh_insula	ctx_rh_bankssts	ctx_rh_caudalanteriorcingulate	ctx_rh_caudalmiddlefrontal	ctx_rh_cuneus	ctx_rh_entorhinal	ctx_rh_fusiform	ctx_rh_inferiorparietal	ctx_rh_inferiortemporal	ctx_rh_isthmuscingulate	ctx_rh_lateraloccipital	ctx_rh_lateralorbitofrontal	ctx_rh_lingual	ctx_rh_medialorbitofrontal	ctx_rh_middletemporal	ctx_rh_parahippocampal	ctx_rh_paracentral	ctx_rh_parsopercularis	ctx_rh_parsorbitalis	ctx_rh_parstriangularis	ctx_rh_pericalcarine	ctx_rh_postcentral	ctx_rh_posteriorcingulate	ctx_rh_precentral	ctx_rh_precuneus	ctx_rh_rostralanteriorcingulate	ctx_rh_rostralmiddlefrontal	ctx_rh_superiorfrontal	ctx_rh_superiorparietal	ctx_rh_superiortemporal	ctx_rh_supramarginal	ctx_rh_frontalpole	ctx_rh_temporalpole	ctx_rh_transversetemporal	ctx_rh_insula	reference
0	15	0	0	0	0	0	0	0	0	0	0	0	0	0	0	0	0	0	0	0	0	0	0	0	0	0	0	0	0	0	0	0	0	0	0	0	0	0	0	0	0	0	0	0	0	0	0	0	0	0	0	0	0	0	0	0	0	0	0	0	0	0	0	0	0	0	0	0	0	0	0	0	0	0	0	0	0	0	0	0	0	0	0	0	0	0	0	0	0	0	0	0	0	0	0	0	0	0	0	0	0	0	0
15	30	0.00024247582769	1.400068413204281e-05	0	0	0	0	0	0	0	0	0	3.309899909709202e-07	0	2.94098079223204e-08	0	3.450999793130904e-05	0	0	0.0008084289729595184	0	0	0	0	0	0	0	0	3.875585434798268e-07	4.008298856206238e-05	0	0	0.0006414526142179966	0.0001842943602241576	0	0	4.354551776941662e-07	0	3.88755072577851e-09	0	0	0.0001933174062287435	0	0	0	0	1.985583548957948e-05	1.453364433245952e-07	0	0	0	0	0	0	5.970967609236766e-10	3.037065710032039e-07	0	0	0	3.165305240138139e-10	7.64763626648346e-07	6.589594203632032e-09	2.844548815245096e-12	0	0	0.0004844166105613112	3.334399778509578e-08	0	0.04480992630124092	0	2.564313916764149e-08	0	0	5.009997625093909e-12	0.0006731165922246873	6.69696310069412e-05	0	0	7.093516614986584e-06	0	2.664565101895278e-08	3.707532982843986e-07	0	0	8.884300939371315e-08	0	0.0003731515316758305	0	2.115759130394412e-11	0	0.01466941647231579	1.576928014166909e-13	0	7.700210517214146e-06	0	4.939243081025779e-05	0.003716164035722613	3.491810174338639e-10	0	0	0	0	-2.6763082133e-05
30	45	0.274232506752014	0.2304438054561615	0.1579468995332718	0.2696792483329773	0.2243006080389023	0.179862454533577	0.2419964224100113	0.1516901701688766	0.1964646577835083	0.3145557940006256	0.4463037252426147	0.1362512707710266	0.148188978433609	0.2532671391963959	0.3332605957984924	0.1763707995414734	0.2295616269111633	0.3278731107711792	0.2299411445856094	0.2677730917930603	0.2832350134849548	0.2084159702062607	0.2475149035453796	0.255409449338913	0.1310813724994659	0.2791502773761749	0.5998713970184326	0.1745209097862244	0.2215327769517899	0.1248650997877121	0.2275352478027344	0.4427542984485626	0.2407148033380508	0.3003219366073608	0.4340037405490875	0.1509078294038773	0.3668703734874725	0.3365311026573181	0.2705111503601074	0.2734439074993134	0.2091419696807861	0.1849415004253387	0.4131423234939575	0.3014465570449829	0.2663917541503906	0.5000568628311157	0.2612453997135162	0.2701147496700287	0.2324160784482956	0.3567590415477753	0.3554380536079407	0.2653719484806061	0.2559161186218262	0.1680746674537659	0.4020815789699554	0.2922228276729584	0.2096461951732635	0.2195311188697815	0.2548502087593079	0.256769597530365	0.2968994379043579	0.3366051912307739	0.2465604841709137	0.4143169820308685	0.1923569440841675	0.3151576220989227	0.41550213098526	0.3635339736938477	0.1996980607509613	0.2432633340358734	0.2054817080497742	0.2826449871063232	0.2450721114873886	0.2714458703994751	0.2410459369421005	0.4374140501022339	0.2423505336046219	0.399559497833252	0.3473587930202484	0.5217838287353516	0.3212195634841919	0.4887286424636841	0.29264235496521	0.4723350405693054	0.2652268707752228	0.2426212728023529	0.415028303861618	0.1742506474256516	0.1431962549686432	0.26579949259758	0.2495266795158386	0.2500559389591217	0.2443331927061081	0.2234309166669846	0.2829041481018066	0.377280592918396	0.2515820562839508	0.3129688501358032	0.1934816986322403	0.8165753483772278	0.2430712878704071	0.291250675916672
45	60	0.889318227767944	0.6659000515937805	0.6763544678688049	1.012461423873901	0.8780537247657776	0.7387513518333435	0.8646726012229919	0.5570337176322937	0.7526695728302002	1.464712619781494	0.8681849837303162	0.5464821457862854	0.5487993955612183	1.247985005378723	2.00492262840271	0.6325920820236206	0.6645215749740601	1.356372237205505	0.8402931690216064	0.6827713847160339	0.8908010721206665	1.087261319160461	1.183131217956543	0.9002189636230469	1.569283008575439	1.157013177871704	0.5138267874717712	0.8035609722137451	0.9071410894393921	0.7282385230064392	0.8101237416267395	1.658965826034546	1.103350639343262	0.9303622245788574	1.122552037239075	0.9112080335617065	1.338352799415588	0.8822868466377258	1.061289429664612	0.966510534286499	0.9067254662513733	1.077626466751099	1.375425577163696	0.9076429605484009	1.183922052383423	0.9109426736831665	1.063219904899597	0.6725004315376282	0.8050621747970581	1.141988754272461	0.7892003059387207	0.7937036752700806	0.5922393798828125	0.9518208503723145	0.9204186201095581	0.9754028916358948	0.8371055722236633	0.9914546608924866	0.8485480546951294	0.9944791793823242	0.9525169134140015	1.209388017654419	0.8778157830238342	0.7339123487472534	0.682756245136261	1.479652881622314	1.104661703109741	0.7860387563705444	0.8031519055366516	0.7420299649238586	0.8469622731208801	1.043939232826233	0.9369160532951355	0.9584097266197205	0.870461106300354	0.9946041703224182	1.100790739059448	0.945468008518219	1.330039620399475	1.225980401039124	1.053196310997009	0.8620015978813171	0.7078961133956909	1.241503596305847	1.001717567443848	0.6820074915885925	1.308617115020752	0.7830891013145447	0.8576892614364624	0.8847342729568481	0.9181163907051086	0.6721330881118774	0.7984570860862732	0.90289705991745	0.9967542886734009	0.9797797799110413	1.056252002716064	0.8336078524589539	0.6494171619415283	2.374136447906494	0.9529816508293152	1.152291834354401
60	75	1.657069206237793	1.310972571372986	1.298047184944153	1.902563095092773	1.484031319618225	0.8841924071311951	1.989821791648865	1.33584189414978	1.495310544967651	1.916583299636841	1.395811080932617	1.229261517524719	1.184900879859924	1.749246835708618	2.330068349838257	1.267123699188232	1.238642692565918	2.319980382919312	1.910176992416382	1.571450233459473	1.462754249572754	0.7806744575500488	2.025290250778198	1.598316311836243	1.525944709777832	1.937617182731628	1.621385455131531	1.58537483215332	1.909404754638672	1.669815540313721	1.646427273750305	3.001245498657227	2.264823198318481	1.98600435256958	2.490203380584717	1.906041145324707	2.425270557403564	1.496314167976379	1.51677668094635	1.747880816459656	1.555519342422485	1.840982794761658	2.372746467590332	1.674169301986694	2.068066358566284	2.330772161483765	1.910979747772217	1.663159370422363	1.545398831367493	2.578083276748657	2.059804201126099	1.78400194644928	1.561502456665039	1.89384913444519	1.895710110664368	1.688955187797546	1.913480639457703	1.663144111633301	1.639445900917053	1.811835050582886	1.577402114868164	1.938037395477295	2.022556781768799	1.182914972305298	1.891189932823181	3.673689365386963	2.256208658218384	1.405943870544434	1.599953055381775	1.746085047721863	1.512688159942627	1.930641293525696	1.522269129753113	1.782072067260742	1.49584174156189	1.671337604522705	2.004861831665039	1.803032994270325	2.164806127548218	1.782502293586731	1.718102216720581	1.521999716758728	1.811646342277527	2.026002883911133	2.260781049728394	2.187068700790405	1.49885094165802	1.904883742332458	1.486616611480713	1.687699794769287	1.703896284103394	1.665256142616272	1.814132928848267	1.773773908615112	1.882924914360046	2.295930147171021	1.792771100997925	2.035077095031738	1.608129262924194	2.493138074874878	1.951776146888733	2.056642234325409
75	90	2.553529262542725	1.978856801986694	2.14924168586731	3.249757051467896	2.222125768661499	1.686431169509888	2.345653772354126	1.811768651008606	2.315343379974365	2.854027509689331	2.358810901641846	1.657965421676636	1.304670929908752	2.698894023895264	4.084712505340576	1.959840655326843	1.922624468803406	3.746962547302246	2.770845651626587	2.156392097473145	2.875292062759399	1.482805371284485	2.738239526748657	1.959656000137329	2.043234825134277	2.525275468826294	5.876209259033203	2.566285133361816	3.071091651916504	2.962774753570557	2.520293235778809	4.480341911315918	3.7611243724823	2.33316969871521	2.69455885887146	2.576332330703735	3.332332134246826	2.349834680557251	2.669695377349854	2.674677610397339	2.579753398895264	3.286579608917236	3.769099712371826	2.747698068618774	3.879992723464966	3.116389751434326	2.741033792495728	2.671338081359863	2.293954610824585	2.895558595657349	3.332993268966675	2.664514541625977	2.399057865142822	2.839296102523804	2.184179067611694	2.693110227584839	2.577107429504395	2.494874954223633	2.505497694015503	2.608725547790527	2.859666347503662	3.115514039993286	2.846955537796021	3.247504949569702	2.751562833786011	4.876914978027344	3.041836023330688	2.617137670516968	1.78709089756012	2.567503213882446	2.829651355743408	1.245588064193726	2.605709791183472	2.788995265960693	2.417894840240479	2.872778177261353	3.142789125442505	2.429691791534424	3.8297438621521	2.781028270721436	2.944669485092163	2.950366497039795	2.745189905166626	3.872069358825684	2.96327018737793	2.766177654266357	3.154926538467407	2.552288055419922	2.12721848487854	2.660114526748657	2.464150905609131	2.234384298324585	2.610520839691162	2.794327020645142	2.981144428253174	3.154699563980103	2.799918413162231	3.506983041763306	2.846976518630981	4.69709587097168	2.584920644760132	3.468168258666992
90	105	4.049789905548096	2.653032541275024	3.142930746078491	4.274654388427734	3.964452266693115	2.34006142616272	3.761510133743286	3.672650098800659	3.13677191734314	3.955249547958374	4.090384483337402	2.192312717437744	2.938668251037598	4.173985481262207	6.178341865539551	2.629796981811523	2.713264465332031	4.878490447998047	3.922863245010376	3.486433744430542	4.263219833374023	2.954370737075806	4.413817882537842	3.144911289215088	2.238939523696899	3.834244966506958	6.628026008605957	3.534289598464966	4.367872714996338	4.099983215332031	3.180272340774536	5.822383403778076	5.282670497894287	3.33079195022583	5.03015661239624	3.349991083145142	4.283228397369385	3.729233980178833	3.239424228668213	4.124411582946777	3.293051242828369	3.415967464447021	5.369645118713379	3.860490083694458	4.594746112823486	4.249045372009277	3.521205186843872	3.255099296569824	2.844855070114136	3.804065704345703	4.286826610565186	3.687885999679565	4.230507373809814	3.815929889678955	3.447638034820557	3.499578475952148	3.060909032821655	4.024502277374268	3.717453241348267	3.854806900024414	3.609197378158569	4.159644603729248	4.129634380340576	4.99098014831543	2.911235332489014	4.523526191711426	4.214913845062256	4.170262336730957	3.165433168411255	3.937951803207397	4.479836940765381	2.757356882095337	2.891541481018066	3.890058517456055	3.33533501625061	4.323370933532715	4.562436580657959	3.225568771362305	4.571534633636475	3.58104944229126	3.619351625442505	3.860892295837402	3.312005758285522	3.6085045337677	4.226869106292725	3.613178730010986	4.50419807434082	3.451583862304688	3.108308792114258	3.315028667449951	3.705073118209839	3.377947330474854	3.540521144866943	3.785205125808716	3.777543783187866	3.623785972595215	3.933141469955444	3.999964475631714	2.589579105377197	7.285946846008301	4.036960601806641	4.51301097869873
105	120	4.56185245513916	3.472166061401367	3.182969331741333	5.723367691040039	4.597177505493164	3.554941654205322	4.62151575088501	4.439850330352783	3.828007698059082	5.410652637481689	4.862294673919678	3.054416179656982	3.069857120513916	4.962903499603271	8.730425834655762	3.428900957107544	3.573938369750977	6.558125972747803	5.391461849212646	2.814643859863281	4.552953720092773	2.923946142196655	4.82361364364624	5.234964370727539	4.159240245819092	4.410353660583496	6.572718620300293	4.501747608184814	5.874933242797852	3.423221111297607	3.84913969039917	7.43997049331665	7.062277317047119	4.76247501373291	6.209026336669922	4.342240333557129	5.978170394897461	4.775440692901611	4.376336097717285	4.742141246795654	4.47899866104126	5.613325595855713	6.860869884490967	4.778722763061523	5.896783828735352	4.981509685516357	5.215773582458496	4.896479606628418	4.401629447937012	5.572409152984619	5.297430515289307	4.302524566650391	4.729171752929688	4.943510055541992	4.301522254943848	4.85774564743042	4.518994331359863	4.858736991882324	4.776186943054199	4.975380420684814	4.803539752960205	5.643141746520996	5.615297317504883	5.698671340942383	4.550457000732422	6.669698238372803	5.34187126159668	4.789088726043701	3.134782314300537	4.648913383483887	5.389797687530518	3.354985237121582	4.535418033599854	4.868687629699707	3.708043813705444	6.099950790405273	5.690197467803955	4.858959197998047	6.333865642547607	5.083127975463867	4.733386039733887	4.424791812896729	4.122108459472656	5.26838207244873	5.605617523193359	4.463017463684082	5.605579376220703	4.26201868057251	3.636333703994751	4.367911338806152	4.89793872833252	3.66210150718689	5.089808464050293	4.465380191802979	5.12744140625	5.178152084350586	4.722592830657959	4.585476875305176	4.380733013153076	8.062128067016602	5.128034591674805	6.148773431777954
120	135	6.080071926116943	4.563570499420166	4.527518749237061	7.213454246520996	6.8962082862854	5.091701984405518	5.333490371704102	6.092551708221436	4.923749923706055	6.714985847473145	6.582302093505859	3.803881406784058	5.841517925262451	6.372164249420166	10.67343044281006	4.572333812713623	4.931486129760742	8.494747161865234	6.004235744476318	5.306955814361572	5.325966358184814	5.791193962097168	7.703731060028076	4.372430801391602	5.470986366271973	5.744630813598633	8.992572784423828	6.623881816864014	7.814268589019775	7.671012401580811	6.138085842132568	9.50931453704834	9.464609146118164	5.577866554260254	7.243710517883301	5.748356819152832	8.437344551086426	6.029549121856689	5.83827543258667	6.722926616668701	5.759805202484131	6.852992534637451	9.076229095458984	6.251317501068115	7.937087059020996	6.644410610198975	6.074676990509033	5.103893280029297	6.357120513916016	6.857049942016602	6.428351879119873	6.23877477645874	6.707776546478271	6.623359680175781	5.239863872528076	6.272387027740479	5.855918884277344	6.521593570709229	6.418096542358398	6.221602439880371	6.486798286437988	7.134262561798096	7.07652473449707	7.128056526184082	5.406213760375977	8.104551315307617	6.554463386535645	5.161924839019775	6.719456672668457	7.064183235168457	7.909761428833008	5.820803165435791	6.099247455596924	6.166281700134277	5.264406204223633	6.003164768218994	7.101295948028564	5.652956485748291	8.933169364929199	6.047385215759277	6.658605098724365	6.668765544891357	6.075910091400146	7.160211563110352	7.275018692016602	6.515646457672119	6.639447212219238	5.552638053894043	5.727595806121826	5.708930492401123	6.616686820983887	5.753609180450439	6.529488563537598	6.292742729187012	7.122202396392822	6.842402935028076	6.293849468231201	6.459080696105957	5.41519021987915	7.961793422698975	5.987736225128174	7.813423633575439
135	150	6.529164791107178	5.311290740966797	5.117484569549561	8.418548583984375	7.227972030639648	4.244378089904785	6.853353500366211	6.699365615844727	6.086749076843262	8.70534610748291	6.580200672149658	4.331420421600342	6.090511798858643	6.021943092346191	8.09283447265625	5.341156959533691	5.289711952209473	10.22652530670166	7.034998893737793	4.833593368530273	6.086294651031494	4.263134479522705	7.938126087188721	5.763552188873291	4.935457706451416	7.659904479980469	10.9049129486084	7.779875755310059	9.423637390136719	5.3582444190979	5.630465507507324	10.98702049255371	11.33742141723633	6.44199275970459	6.328802585601807	7.531163215637207	10.31379413604736	6.766439437866211	7.184895038604736	8.057652473449707	6.302521228790283	7.696074962615967	11.12444686889648	7.36083459854126	9.486215591430664	7.78421688079834	7.640712738037109	6.379729747772217	5.248487949371338	8.287373542785645	7.923482418060303	8.000827789306641	9.250798225402832	7.576837539672852	6.532107353210449	7.226531982421875	6.613643169403076	6.450223922729492	7.270852565765381	7.430644989013672	7.596461296081543	7.792634963989258	8.002968788146973	6.692831993103027	6.060707569122314	8.491060256958008	8.47836971282959	7.42328929901123	7.574778079986572	7.350435733795166	10.10645294189453	5.813539981842041	7.038862705230713	8.416049957275391	6.443665027618408	7.560729503631592	8.64599609375	7.182398319244385	10.22780799865723	7.324224472045898	6.700912952423096	5.545827388763428	7.348601818084717	8.28887939453125	7.446043968200684	7.106588363647461	8.484330177307129	7.099112987518311	6.53235387802124	6.464346885681152	7.338566780090332	6.66159725189209	8.079489707946777	7.738123416900635	8.256037712097168	7.178776264190674	8.608328819274902	9.261919975280762	7.460629940032959	9.479063987731934	8.019194602966309	9.339043617248535
150	165	7.08886194229126	6.239387512207031	7.127307891845703	9.77904224395752	7.516445636749268	4.800839424133301	8.452875137329102	9.127690315246582	5.902846336364746	8.213144302368164	8.047974586486816	4.362833023071289	5.649435043334961	7.45490550994873	9.22007942199707	5.946034908294678	6.606294631958008	11.25490856170654	7.803783893585205	4.840639591217041	6.40422534942627	6.959928512573242	9.069347381591797	5.564035415649414	5.068472385406494	7.70056676864624	8.542207717895508	8.790224075317383	10.84183216094971	7.06597900390625	6.080928325653076	12.06347560882568	13.05652236938477	8.607697486877441	8.041123390197754	8.108822822570801	10.46428680419922	8.055558204650879	7.489298343658447	9.009618759155273	7.70770788192749	9.19576358795166	12.13542652130127	8.324335098266602	10.3183536529541	8.671547889709473	9.102018356323242	6.591842651367188	6.93641471862793	8.34661865234375	8.296833992004395	7.941868305206299	9.272358894348145	8.432304382324219	7.808812618255615	8.181479454040527	8.109709739685059	7.234329223632812	8.625673294067383	8.403376579284668	8.46971321105957	9.619616508483887	8.568008422851562	8.40142822265625	7.377458095550537	10.43004131317139	8.787906646728516	8.721428871154785	5.791235446929932	8.743474960327148	10.36593437194824	5.427079200744629	7.586565494537354	8.636401176452637	7.362658500671387	8.583938598632812	10.96941947937012	8.24195384979248	10.56546401977539	8.092288970947266	7.957303047180176	6.833383083343506	8.00202465057373	8.469019889831543	8.06371021270752	8.849420547485352	8.455883979797363	8.53040885925293	6.371584415435791	8.135029792785645	8.624067306518555	6.545479297637939	8.63524341583252	8.100107192993164	8.700387001037598	8.978916168212891	8.064697265625	9.459317207336426	6.318867206573486	10.31144428253174	8.465212821960449	10.55527639389038
165	180	7.624090194702148	6.489045143127441	6.787193775177002	10.1354284286499	8.862698554992676	4.775375843048096	7.308055400848389	9.69218921661377	6.663411617279053	8.877697944641113	7.949265956878662	4.693881511688232	8.180560111999512	8.342376708984375	9.827665328979492	6.52225399017334	6.807698726654053	12.14323902130127	8.329385757446289	5.585577487945557	8.298123359680176	6.897622108459473	8.90673828125	5.827356815338135	5.926197528839111	8.55146312713623	9.192193984985352	9.279085159301758	11.66665744781494	9.027002334594727	6.932767868041992	12.01743984222412	14.26611518859863	8.212460517883301	7.091054439544678	9.141164779663086	10.40324974060059	7.665673732757568	8.433565139770508	9.187178611755371	8.036683082580566	8.149855613708496	13.09396266937256	8.105754852294922	9.678107261657715	7.762173652648926	9.939582824707031	7.313823699951172	7.284676074981689	9.703071594238281	8.769654273986816	8.249737739562988	11.15865993499756	9.451189041137695	8.657631874084473	8.837718963623047	7.759946346282959	7.435672283172607	8.90955638885498	8.897417068481445	9.480253219604492	9.460034370422363	9.871611595153809	8.798609733581543	7.730533123016357	10.40235805511475	9.519137382507324	7.527184963226318	6.977160453796387	8.745963096618652	10.59928703308105	5.246201515197754	8.152941703796387	9.609962463378906	8.069602012634277	9.927926063537598	11.52822685241699	9.181207656860352	11.35898017883301	7.671550273895264	8.427206039428711	7.346567630767822	8.27564525604248	8.904315948486328	10.04818058013916	9.880948066711426	8.769040107727051	8.632342338562012	6.246814250946045	8.382795333862305	8.966839790344238	9.141865730285645	8.764333724975586	8.774857521057129	10.37937545776367	9.330443382263184	9.095909118652344	12.47571277618408	8.009685516357422	11.83188247680664	7.362435340881348	11.32406854629517
180	195	8.215039253234863	6.623504638671875	7.399966239929199	10.22164535522461	9.079448699951172	4.621104717254639	8.471352577209473	8.060346603393555	6.97935676574707	8.82036018371582	7.081168174743652	4.670637130737305	7.848928928375244	7.375621795654297	12.4998197555542	6.75433349609375	7.044895172119141	11.90198516845703	9.152850151062012	5.477758884429932	8.797182083129883	8.047469139099121	9.27013111114502	5.747879028320312	7.28476095199585	7.243548393249512	10.57196617126465	9.483057975769043	12.12019824981689	9.837273597717285	7.081876754760742	11.78129386901855	14.91935539245605	9.372474670410156	7.921238422393799	9.486965179443359	10.87379264831543	7.578815460205078	8.394105911254883	10.20511722564697	8.54801082611084	9.310482978820801	12.82663059234619	8.802839279174805	9.740633964538574	9.602952003479004	9.175806999206543	6.926218509674072	7.705562114715576	8.751323699951172	9.330727577209473	8.838396072387695	9.986911773681641	9.383193969726562	8.521066665649414	10.00044345855713	9.240517616271973	8.398318290710449	9.871487617492676	9.231285095214844	9.031621932983398	9.048921585083008	10.33827304840088	9.831125259399414	8.04619026184082	8.69185733795166	7.785226821899414	8.329607963562012	5.835875988006592	9.02723503112793	12.02458667755127	9.337783813476562	8.585000038146973	9.672962188720703	8.163328170776367	8.03758430480957	11.34613418579102	8.407382965087891	11.15844345092773	9.161678314208984	7.751682281494141	7.981348514556885	8.593238830566406	9.370821952819824	10.29393768310547	9.61400318145752	11.26103210449219	8.522444725036621	7.960564613342285	9.291130065917969	9.78498363494873	8.572460174560547	10.19746112823486	9.367717742919922	9.872433662414551	8.996577262878418	9.289401054382324	10.95517253875732	7.328910827636719	11.96446514129639	8.277195930480957	11.18763113021851
195	210	8.019862174987793	6.907437324523926	7.143153190612793	10.56354713439941	8.29576301574707	5.361924171447754	8.316178321838379	8.031851768493652	6.971010208129883	9.568642616271973	8.265975952148438	4.84794282913208	9.079636573791504	8.474771499633789	11.54026412963867	6.93370532989502	7.675650119781494	12.0853796005249	9.631226539611816	5.908035278320312	7.313509464263916	6.57906436920166	7.036101818084717	6.221952438354492	6.632924556732178	9.218662261962891	10.64941215515137	9.60163402557373	12.36630344390869	9.461520195007324	7.121843338012695	11.63666248321533	15.19361972808838	8.052164077758789	8.977954864501953	10.38505077362061	11.95131587982178	9.287271499633789	8.00410270690918	10.12917327880859	9.060812950134277	10.05656337738037	12.53690433502197	9.248128890991211	10.37881183624268	9.331496238708496	9.31276798248291	7.227204322814941	8.99312686920166	9.259232521057129	9.061589241027832	9.284380912780762	10.33728218078613	9.548562049865723	8.631758689880371	9.283754348754883	10.03670883178711	9.262851715087891	9.737915992736816	9.661153793334961	9.816189765930176	8.857954025268555	11.14142894744873	10.86111259460449	6.955513954162598	11.43132305145264	9.005937576293945	9.236504554748535	8.79771614074707	9.354804039001465	11.00221729278564	7.387197494506836	7.880427360534668	10.26952648162842	8.604354858398438	9.629667282104492	11.34119129180908	8.82426929473877	11.00933265686035	8.770666122436523	9.563789367675781	7.896211624145508	8.083586692810059	9.619575500488281	9.996834754943848	8.87722110748291	12.74057865142822	9.17789363861084	7.929481506347656	9.454426765441895	9.050552368164062	8.106328964233398	9.984282493591309	9.602507591247559	9.756484985351562	10.11226177215576	9.101465225219727	10.31204032897949	7.924583911895752	12.31127738952637	9.065285682678223	11.54274225234985
210	225	8.665295600891113	7.373651027679443	6.9642014503479	11.43246746063232	9.141611099243164	6.420208930969238	8.302298545837402	7.79228401184082	6.987117290496826	8.8931884765625	7.559401512145996	4.893155574798584	9.789838790893555	9.362508773803711	12.44904708862305	7.16883659362793	7.826566696166992	11.78087139129639	9.242401123046875	5.084848403930664	10.0730619430542	8.241645812988281	9.604049682617188	5.596526145935059	8.839539527893066	8.122568130493164	9.715633392333984	9.693215370178223	12.6111888885498	7.822608947753906	7.357749938964844	11.43584060668945	15.32756328582764	9.50990104675293	8.864666938781738	10.17520236968994	11.61763095855713	9.711329460144043	8.420023918151855	10.50678825378418	9.130035400390625	9.754792213439941	12.97095775604248	8.702156066894531	10.59801769256592	9.565547943115234	10.24239921569824	7.484852313995361	9.738310813903809	9.35690975189209	10.04629898071289	9.051803588867188	11.38228511810303	9.673652648925781	8.60545825958252	9.882183074951172	8.678562164306641	6.792758464813232	10.63028049468994	9.712769508361816	9.894040107727051	10.41790866851807	10.41757488250732	9.507236480712891	8.326766967773438	12.83022499084473	8.597721099853516	9.520480155944824	8.003345489501953	10.33618354797363	12.75400161743164	8.432815551757812	8.996329307556152	10.30860424041748	9.098557472229004	8.350020408630371	11.14615631103516	8.735886573791504	11.79050350189209	9.69620418548584	9.745326995849609	7.464168548583984	8.354028701782227	10.14309024810791	9.610222816467285	10.23840427398682	10.260910987854	10.45228576660156	8.405760765075684	9.912193298339844	8.471438407897949	9.188751220703125	10.59585952758789	9.38053035736084	10.79039287567139	9.90773868560791	9.82329273223877	10.13085556030273	8.585015296936035	12.93834018707275	8.240646362304688	11.88319826126099
225	240	8.881667137145996	7.425599575042725	7.751347064971924	11.35890960693359	8.504985809326172	5.558629512786865	9.133787155151367	11.06751728057861	7.164927005767822	8.928314208984375	5.983242034912109	4.819864273071289	6.863582611083984	7.904484272003174	9.611370086669922	7.516561031341553	8.060504913330078	11.64822292327881	10.25297451019287	7.062202453613281	8.693977355957031	7.918200969696045	11.21591949462891	4.549981117248535	6.580778121948242	8.35439395904541	9.395187377929688	9.467286109924316	12.8389778137207	9.023786544799805	8.262555122375488	11.30815505981445	15.54899597167969	10.36400890350342	9.056731224060059	9.210179328918457	12.11012649536133	7.389454364776611	9.493317604064941	10.37493896484375	9.236783027648926	9.436894416809082	14.10192489624023	9.428054809570312	9.938886642456055	8.151071548461914	11.32189178466797	7.078976631164551	9.106130599975586	10.41325855255127	9.862089157104492	11.07139492034912	10.68830394744873	9.973620414733887	8.444271087646484	9.665645599365234	10.05229187011719	8.666473388671875	9.831717491149902	9.855928421020508	10.59488487243652	10.43107891082764	11.16587829589844	8.617123603820801	8.479351043701172	10.40762710571289	8.953241348266602	8.882132530212402	6.551081657409668	10.81602954864502	12.42087936401367	7.319711685180664	8.825137138366699	10.61315727233887	9.173933982849121	8.911787033081055	12.44277000427246	9.571820259094238	10.84933948516846	8.912629127502441	9.156414031982422	7.899073600769043	8.963920593261719	10.13780403137207	10.67867183685303	10.03781986236572	10.27891159057617	10.46260166168213	8.291546821594238	10.20736122131348	9.641302108764648	10.41849517822266	10.66001510620117	9.476330757141113	11.44851303100586	9.333651542663574	9.794601440429688	12.03589725494385	8.010980606079102	11.37116622924805	10.01929759979248	11.78251647949219
