frame_start	frame_end	highbinding	left_cerebral_white_matter	left_cerebellum_white_matter	left_cerebellum_cortex	left_thalamus	left_caudate	left_putamen	left_pallidum	brain_stem	left_hippocampus	left_amygdala	csf	left_accumbens_area	left_ventraldc	left_choroid_plexus	right_cerebral_white_matter	right_cerebellum_white_matter	right_cerebellum_cortex	right_thalamus	right_caudate	right_putamen	right_pallidum	right_hippocampus	right_amygdala	right_accumbens_area	right_ventraldc	right_choroid_plexus	aircavity	skull	vermis	pons	csf_extracerebral	head_extracerebral	ctx_lh_bankssts	ctx_lh_caudalanteriorcingulate	ctx_lh_caudalmiddlefrontal	ctx_lh_cuneus	ctx_lh_entorhinal	ctx_lh_fusiform	ctx_lh_inferiorparietal	ctx_lh_inferiortemporal	ctx_lh_isthmuscingulate	ctx_lh_lateraloccipital	ctx_lh_lateralorbitofrontal	ctx_lh_lingual	ctx_lh_medialorbitofrontal	ctx_lh_middletemporal	ctx_lh_parahippocampal	ctx_lh_paracentral	ctx_lh_parsopercularis	ctx_lh_parsorbitalis	ctx_lh_parstriangularis	ctx_lh_pericalcarine	ctx_lh_postcentral	ctx_lh_posteriorcingulate	ctx_lh_precentral	ctx_lh_precuneus	ctx_lh_rostralanteriorcingulate	ctx_lh_rostralmiddlefrontal	ctx_lh_superiorfrontal	ctx_lh_superiorparietal	ctx_lh_superiortemporal	ctx_lh_supramarginal	ctx_lh_frontalpole	ctx_lh_temporalpole	ctx_lh_transversetemporal	ctx_lh_insula	ctx_rh_bankssts	ctx_rh_caudalanteriorcingulate	ctx_rh_caudalmiddlefrontal	ctx_rh_cuneus	ctx_rh_entorhinal	ctx_rh_fusiform	ctx_rh_inferiorparietal	ctx_rh_inferiortemporal	ctx_rh_isthmuscingulate	ctx_rh_lateraloccipital	ctx_rh_lateralorbitofrontal	ctx_rh_lingual	ctx_rh_medialorbitofrontal	ctx_rh_middletemporal	ctx_rh_parahippocampal	ctx_rh_paracentral	ctx_rh_parsopercularis	ctx_rh_parsorbitalis	ctx_rh_parstriangularis	ctx_rh_pericalcarine	ctx_rh_postcentral	ctx_rh_posteriorcingulate	ctx_rh_precentral	ctx_rh_precuneus	ctx_rh_rostralanteriorcingulate	ctx_rh_rostralmiddlefrontal	ctx_rh_superiorfrontal	ctx_rh_superiorparietal	ctx_rh_superiortemporal	ctx_rh_supramarginal	ctx_rh_frontalpole	ctx_rh_temporalpole	ctx_rh_transversetemporal	ctx_rh_insula	reference
0	15	2.2474262e-08	1.04296278280458e-08	0	0	0	0	2.063445248001727e-10	0	0	0	0	0	0	0	0	1.252410397611925e-09	0	0	0	0	0	0	0	0	0	0	0	0	1.316212916435688e-07	0	0	2.785442099195734e-08	5.701434133698058e-07	0	0	0	0	0	0	0	0	0	0	0	0	0	0	0	0	0	0	0	0	0	0	1.011212361845537e-06	0	0	1.603984861597851e-10	1.862695414578397e-11	0	0	0	8.389462209379417e-07	0	0	0	0	0	0	0	0	0	7.855417705204815e-12	0	0	0	0	0	0	0	0	0	1.598638118593954e-05	0	0	0	8.024360731440083e-09	0	1.617348144300479e-09	0	0	0	0	0	6.560601129197707e-13	2.223346506902146e-11	0	0	0	0	-3.68822e-09
15	30	0.018724793568254	0.01950364373624325	0.005476972553879023	0.0009919838048517704	0.01733334362506866	0.008881493471562862	0.03563313186168671	0.002524309325963259	0.0002699608157854527	0.01310087274760008	0.0107021601870656	0.03886067494750023	0.07468371838331223	0.006831177044659853	4.200460170977749e-05	0.01720461249351501	0.0003179415652994066	0.001607197104021907	0.0101047046482563	0.02179747074842453	0.03478347137570381	0.002960982033982873	0.01232960354536772	0.01458835788071156	2.422136446966761e-07	0.004654866643249989	2.6190709832008e-05	0.004294257611036301	0.006248889490962029	0	0.02498161792755127	0.01627816446125507	0.004683487582951784	0.003849824890494347	0.0308731347322464	0.01537453755736351	0.000797361833974719	0.001103432616218925	0.006989850662648678	0.01717951521277428	0.004110161680728197	0.02817049063742161	0.003882477758452296	0.0003745072754099965	0.02753538265824318	0.02097960934042931	0.01889517344534397	0.0006145160878077149	0.004495184868574142	0.0289372093975544	0.007323263213038445	0.005165831185877323	6.857484549982473e-05	0.02924219891428947	0.005028512328863144	0.009045476093888283	0.01674716919660568	0.008513051085174084	0.03992820903658867	0.022993428632617	0.003890336025506258	0.03263908252120018	0.0189401600509882	0.1282176673412323	0.004200966097414494	0.05156392231583595	0.002101516351103783	0.0003627141122706234	0.00214659865014255	0.005535206757485867	0.002750820247456431	0.07777831703424454	8.622318273410201e-05	0.002908946247771382	0.0006775792571716011	0.0104927122592926	8.178287771443138e-07	0.0222840178757906	0.005402521695941687	0.02670571953058243	0.004424300976097584	1.118342993322585e-06	0.004748053848743439	0.01486116833984852	0.02864007093012333	0.02183831855654716	0.001344793592579663	0.002891919808462262	0.01768725924193859	0.01349720917642117	0.006046390160918236	0.0006894494290463626	0.03376011550426483	0.009590806439518929	0.03467471897602081	0.004154841415584087	0.02630762010812759	0.006775530520826578	0.02912844531238079	0.02038995921611786	0.02312929183244705	0.000205120697501
30	45	0.7632155418396001	0.6682387590408325	0.4464400708675385	0.7898701429367065	0.6576436161994934	0.5864971876144409	1.082093238830566	0.5832268595695496	0.8722740411758423	1.255463480949402	1.283082365989685	0.7774086594581604	1.207681059837341	0.9955390691757202	1.158622622489929	0.7334620356559753	0.5128021240234375	0.8903366923332214	0.8355761170387268	0.5361040830612183	0.7976505756378174	1.141157388687134	0.8314328789710999	0.9563996195793152	0.690824568271637	0.9452521204948425	0.7891140580177307	0.5696101188659668	0.5766721367835999	0.8635889887809753	1.079662561416626	0.9983478784561157	0.4635026454925537	0.9957108497619629	1.448015809059143	0.6604019403457642	0.8928976058959961	0.6687346696853638	0.8647003769874573	0.7256131172180176	0.7467947006225586	0.4876652359962463	0.6138781905174255	0.9289581775665283	0.7704464197158813	1.045241594314575	0.9987515807151794	1.011390089988708	0.8077912330627441	1.080902934074402	0.7594476938247681	0.654828667640686	0.7184185385704041	0.7430700659751892	0.9034936428070068	0.8658276200294495	0.6277683973312378	1.484116792678833	0.608066201210022	0.7103801369667053	0.5667967796325684	1.222236752510071	0.8256235122680664	0.437041163444519	0.9526706337928772	1.441743731498718	1.238981485366821	0.7381617426872253	0.9342681169509888	0.6790536046028137	0.636814296245575	1.723391890525818	0.6616275310516357	0.8181308507919312	0.684461236000061	1.014686822891235	0.6922558546066284	0.9556511640548706	0.7878674268722534	0.8646320700645447	0.6794722080230713	0.8625696897506714	0.9458004832267761	0.8729774355888367	0.9645234346389771	0.8690851926803589	1.605494260787964	0.7786536812782288	0.7204441428184509	0.8837987184524536	0.7092543840408325	1.502671957015991	0.8157742619514465	0.9052216410636902	0.6234515905380249	1.068997144699097	0.8549004197120667	0.5614713430404663	0.8604859113693237	1.340427875518799	1.123396158218384	0.848480939865112
45	60	3.060575246810913	2.506982088088989	2.669748306274414	4.445167064666748	3.369859457015991	3.057262182235718	2.918774127960205	3.338618755340576	3.790907144546509	4.131587028503418	4.206525325775146	2.701990842819214	5.61173677444458	2.85303258895874	3.53278112411499	2.494025468826294	2.939419031143188	5.236189365386963	2.95045280456543	2.121133327484131	3.112247705459595	2.26768684387207	4.357994079589844	4.343019008636475	1.67318069934845	4.93610668182373	5.489243984222412	3.863423824310303	3.378485441207886	4.520785331726074	4.137450695037842	5.459959030151367	3.161521911621094	3.610352039337158	3.786640405654907	3.558864593505859	4.360920429229736	3.388767242431641	3.124054193496704	3.692335844039917	3.097783327102661	3.238065719604492	3.134694576263428	3.883292675018311	3.601479053497314	4.754515647888184	3.96124792098999	4.149795532226562	2.294723033905029	3.795883893966675	3.46113133430481	3.249010324478149	3.803882598876953	4.089975833892822	3.962138652801514	3.419147491455078	2.950958490371704	5.177844047546387	2.970430135726929	3.272747993469238	3.817468881607056	4.656708240509033	3.343903064727783	3.877094030380249	4.078997611999512	5.598116874694824	4.223988056182861	3.314312696456909	4.667815685272217	2.967455863952637	4.510426998138428	4.003363132476807	2.943157434463501	3.454743385314941	3.171103239059448	3.448533535003662	3.771445989608765	3.465160131454468	4.599022388458252	3.77559757232666	3.547937154769897	4.358014106750488	2.957499265670776	4.294185638427734	3.725550174713135	3.436647415161133	4.155737400054932	3.419074535369873	2.909902334213257	3.597912788391113	3.345389604568481	3.690335035324097	3.280648708343506	2.939760684967041	3.589945793151855	4.167896270751953	3.569278478622437	4.138831615447998	4.164072036743164	4.58645486831665	3.801964998245239	4.84521484375
60	75	4.374226570129395	3.995099306106567	4.993862628936768	7.037949085235596	5.328247547149658	2.976055860519409	3.667905807495117	4.693267345428467	5.957079887390137	6.356992244720459	5.204293727874756	4.267346382141113	4.214773654937744	4.114823818206787	8.387103080749512	3.858080148696899	4.243434906005859	7.425360679626465	5.853048801422119	3.470293998718262	5.061893939971924	5.377950668334961	5.880677700042725	4.869465827941895	2.326000213623047	4.911034107208252	4.74811315536499	7.137607574462891	5.914700508117676	6.518643856048584	5.766541481018066	8.15069580078125	5.718408107757568	5.442957401275635	5.602346420288086	4.222429752349854	8.008378982543945	4.990895748138428	5.049270629882812	5.095655918121338	5.66661262512207	5.626440048217773	5.63046932220459	5.307643413543701	6.099353790283203	5.947330474853516	5.317590713500977	4.346663951873779	5.164865016937256	5.072795867919922	5.142305850982666	5.046483993530273	5.426599025726318	5.243157863616943	4.732264995574951	4.994743824005127	4.442362308502197	5.77607536315918	4.945752143859863	4.804659843444824	5.404585838317871	5.964349269866943	5.122952461242676	5.123778343200684	7.371397018432617	6.554242134094238	6.180572986602783	5.416059970855713	5.871104717254639	5.338451385498047	7.707014560699463	5.523608684539795	4.172510147094727	5.911360263824463	5.111789703369141	5.59828519821167	6.751926898956299	4.737709045410156	6.016804218292236	4.654901027679443	5.610079765319824	4.193899631500244	4.347491264343262	5.670780181884766	5.037600517272949	6.077069759368896	6.848136425018311	5.063323020935059	4.986428260803223	4.678565502166748	5.552318096160889	6.574539184570312	5.028096675872803	4.35862922668457	5.8705735206604	5.466132640838623	5.760408878326416	3.823341369628906	4.190853118896484	7.006511688232422	5.020007610321045	7.213147401809692
75	90	6.043923854827881	5.338302612304688	5.774773597717285	9.119626045227051	6.879487037658691	4.372011184692383	6.49661922454834	3.894019842147827	7.405776023864746	7.571129322052002	6.361995697021484	5.833568572998047	5.109380722045898	6.65275764465332	9.880927085876465	5.403708457946777	5.486199378967285	10.12554168701172	6.430627346038818	5.256906986236572	6.25728702545166	4.778328418731689	6.73694896697998	8.437887191772461	8.218944549560547	7.042835235595703	8.790310859680176	9.468583106994629	7.697078704833984	7.423042774200439	7.494050979614258	10.36145496368408	7.639717578887939	7.326082229614258	7.802070617675781	6.376632213592529	10.07273197174072	7.754815578460693	6.629121780395508	7.227637767791748	6.737131595611572	9.57769775390625	8.599472045898438	6.68525218963623	7.965549945831299	7.693417072296143	8.049545288085938	5.242475032806396	5.922577857971191	7.334070682525635	8.310330390930176	10.174485206604	8.031216621398926	7.963595390319824	5.323136806488037	7.391995906829834	6.586249828338623	8.177628517150879	6.843126773834229	6.472225189208984	7.870601177215576	9.285544395446777	7.890989303588867	6.523472309112549	7.778200626373291	10.18812561035156	7.835286140441895	7.079531192779541	8.31015682220459	6.172446727752686	7.748790740966797	7.438374042510986	7.021920680999756	7.588372707366943	6.767273426055908	7.73501443862915	8.413054466247559	6.307600021362305	9.446063041687012	7.481814384460449	7.792977333068848	5.849964618682861	5.927147388458252	7.418608665466309	5.459195613861084	7.353806495666504	8.678956031799316	7.091980457305908	6.200146198272705	6.914985656738281	6.88270902633667	7.707444190979004	6.659278869628906	5.785433769226074	8.12766170501709	7.747743606567383	7.77633810043335	6.929989337921143	6.672825336456299	8.36896800994873	7.614692211151123	9.671547889709473
90	105	7.267290115356445	6.558655738830566	8.153410911560059	11.93436813354492	7.908559322357178	6.147260665893555	7.766355514526367	6.399055004119873	8.254837036132812	10.01487731933594	10.15929412841797	6.511513233184814	6.839469909667969	8.149922370910645	7.456868648529053	6.532430171966553	7.352994918823242	13.01986217498779	8.345790863037109	5.0135178565979	7.237339973449707	6.633739948272705	7.533103466033936	7.666923999786377	7.789704322814941	8.623393058776855	8.090200424194336	11.76835250854492	9.807977676391602	10.19969844818115	8.353968620300293	12.60400581359863	9.607715606689453	9.639754295349121	8.154991149902344	8.67710018157959	12.56912136077881	9.548165321350098	7.478355884552002	10.01735019683838	8.367379188537598	8.492867469787598	10.42856407165527	8.373147964477539	10.35472011566162	8.585565567016602	9.133495330810547	8.049222946166992	6.891260623931885	9.503998756408691	8.28896427154541	10.02663040161133	10.94720649719238	9.541510581970215	6.853366374969482	9.048196792602539	8.305721282958984	9.563381195068359	8.644150733947754	7.781466484069824	10.00501251220703	10.3666524887085	9.516727447509766	9.119132995605469	10.86573505401611	9.949687004089355	9.382951736450195	9.254428863525391	7.761391162872314	7.824801445007324	12.3862419128418	7.38279914855957	8.160449028015137	10.47260284423828	8.504251480102539	9.940227508544922	10.81192684173584	8.113872528076172	12.19652080535889	9.207695960998535	8.417694091796875	5.878602504730225	7.055890083312988	9.498273849487305	7.963027000427246	7.942986965179443	9.54903507232666	7.912805557250977	7.630056381225586	8.096720695495605	8.047057151794434	11.07223987579346	7.83781099319458	7.673988819122314	10.14774799346924	9.335415840148926	9.457292556762695	6.776947975158691	10.44724273681641	11.58890342712402	10.37648773193359	12.66367530822754
105	120	8.280911445617676	7.407230854034424	8.696341514587402	12.88755035400391	10.23912906646729	6.536162853240967	8.393513679504395	9.247733116149902	9.444565773010254	9.394931793212891	9.826936721801758	6.958259105682373	8.103094100952148	7.711794853210449	10.22507762908936	7.434327125549316	7.901059150695801	14.11709022521973	9.27757453918457	5.814261436462402	8.304908752441406	7.915426731109619	10.22898769378662	7.490852832794189	6.47523832321167	7.931094169616699	10.28432464599609	14.19296836853027	11.31608104705811	11.99120998382568	9.781930923461914	14.12558746337891	11.56574249267578	10.01663684844971	9.761587142944336	9.979120254516602	15.52028560638428	8.567316055297852	8.685165405273438	11.02026271820068	9.308045387268066	10.24519634246826	12.49033164978027	8.940228462219238	11.67179584503174	10.47299003601074	10.05226516723633	7.961910247802734	9.229103088378906	11.88097381591797	9.325506210327148	10.12200736999512	11.54856491088867	10.27682304382324	8.36038875579834	10.5364465713501	9.720550537109375	9.451076507568359	9.47152042388916	8.541966438293457	11.43812465667725	11.56086254119873	10.14076614379883	11.14222717285156	9.33277416229248	14.45690441131592	10.37255764007568	11.29095554351807	7.244103908538818	8.951062202453613	13.36756038665771	8.70645809173584	8.443016052246094	10.66466236114502	9.949479103088379	11.8482494354248	12.67031764984131	8.882571220397949	13.15008354187012	8.239790916442871	10.07835006713867	7.556986331939697	8.994729042053223	11.02644157409668	9.744925498962402	9.624892234802246	12.85591125488281	10.32027721405029	6.715991973876953	9.480813980102539	10.27442741394043	8.808408737182617	9.027595520019531	8.27910041809082	11.39128017425537	10.68668365478516	10.15662479400635	8.985830307006836	8.449336051940918	10.85717010498047	10.11923122406006	13.66641092300415
120	135	9.088805198669434	7.999866485595703	9.822392463684082	13.79335308074951	10.35666084289551	6.293040752410889	8.935141563415527	8.387718200683594	9.964931488037109	10.26933288574219	10.66991424560547	7.007916927337646	9.603860855102539	8.226262092590332	9.13548469543457	7.62784481048584	8.979177474975586	15.68406105041504	9.715083122253418	7.380541324615479	9.438851356506348	8.924591064453125	8.833010673522949	7.76762866973877	5.681062698364258	8.848021507263184	10.83467674255371	15.41999626159668	11.80161762237549	12.69493103027344	9.752682685852051	13.96859359741211	12.70542144775391	9.474740028381348	8.694135665893555	9.940384864807129	16.330078125	9.55736255645752	9.054725646972656	11.60591220855713	10.51265525817871	12.1244649887085	12.56615161895752	10.87226867675781	12.51123714447021	9.321311950683594	10.71396732330322	8.3277587890625	9.55816650390625	10.10948276519775	11.76209259033203	11.73160552978516	13.05100917816162	10.48353004455566	9.446346282958984	10.32636260986328	11.08315467834473	10.46814727783203	10.09487342834473	9.532732963562012	12.91991901397705	12.64201641082764	10.77059936523438	8.71794319152832	8.925258636474609	11.42550086975098	10.31443119049072	11.35854625701904	8.601774215698242	8.87108039855957	13.99406147003174	8.827069282531738	9.143417358398438	11.48226833343506	8.908573150634766	11.31170082092285	13.05186939239502	8.836512565612793	15.43057918548584	9.050422668457031	10.31181335449219	8.215068817138672	8.968317985534668	9.235650062561035	11.16749477386475	10.09769248962402	11.91024684906006	10.08897876739502	7.720310211181641	9.025222778320312	9.97889232635498	9.800778388977051	9.890108108520508	8.602518081665039	12.08583736419678	10.28860855102539	11.91180515289307	8.597955703735352	9.234597206115723	12.03567123413086	9.37476921081543	15.0970401763916
135	150	8.98728084564209	8.678339958190918	10.04686546325684	13.90895080566406	10.55362892150879	6.631149291992188	9.920300483703613	9.643830299377441	10.1060848236084	11.10983467102051	7.052526950836182	7.393631458282471	7.387343406677246	8.800806045532227	12.0896692276001	8.499123573303223	10.14380168914795	15.47536754608154	10.29466724395752	6.766708850860596	8.860977172851562	10.99424743652344	8.660654067993164	6.947309970855713	7.530317783355713	8.6654052734375	9.609246253967285	16.54183959960938	12.59443855285645	13.40578651428223	10.14577674865723	14.10636425018311	13.37612152099609	10.96933937072754	9.093286514282227	10.21796131134033	17.71101188659668	9.948973655700684	9.405789375305176	12.02949619293213	11.11072635650635	11.0543041229248	16.06784057617188	9.412232398986816	12.39233875274658	9.927785873413086	10.91070652008057	8.623263359069824	9.294716835021973	10.19295597076416	12.3826208114624	11.29782485961914	12.08932018280029	11.48672866821289	8.552768707275391	10.38931274414062	12.06873798370361	10.12329769134521	10.71787452697754	9.719169616699219	13.72006702423096	12.81800746917725	12.37568187713623	11.90140628814697	12.13943672180176	13.59251117706299	10.05521869659424	13.24324989318848	9.455752372741699	9.33734130859375	15.85507392883301	11.04198360443115	10.41460704803467	12.51587295532227	10.07210159301758	11.48992156982422	13.98429107666016	9.113101959228516	16.04085350036621	9.670173645019531	11.30117225646973	7.530003070831299	9.853511810302734	11.43330097198486	10.27284526824951	11.62253379821777	13.41241073608398	10.61786556243896	9.923284530639648	9.732646942138672	11.75042915344238	8.970161437988281	10.40351295471191	8.977968215942383	13.17182445526123	11.37451457977295	11.60501384735107	10.34470272064209	8.79578971862793	13.27562808990479	8.821943283081055	15.03808069229126
150	165	10.53852653503418	9.117011070251465	9.872756958007812	14.37780380249023	10.91006851196289	7.767880439758301	9.771527290344238	8.841011047363281	9.30146598815918	9.030768394470215	6.171672821044922	7.816501140594482	11.39731121063232	9.540310859680176	12.30531597137451	8.905922889709473	9.894909858703613	15.83369064331055	12.91775512695312	7.855619430541992	12.15080261230469	12.45657444000244	10.5729284286499	8.592094421386719	10.73287582397461	9.712077140808105	9.851263999938965	17.06121444702148	13.05676078796387	13.88582038879395	9.783817291259766	14.45562553405762	14.38018131256104	11.41229629516602	8.911911964416504	10.49680709838867	18.8892936706543	9.47402286529541	10.99721908569336	13.97193431854248	12.06966209411621	10.81612491607666	17.03841781616211	9.807180404663086	13.49126434326172	9.687711715698242	12.2118673324585	10.36893939971924	9.026615142822266	11.41770172119141	12.5338020324707	11.57795238494873	13.88878536224365	11.42459106445312	10.654465675354	11.15695381164551	12.49220275878906	9.994331359863281	11.52250480651855	10.26360607147217	13.73886585235596	12.87156581878662	12.13916778564453	9.915408134460449	12.68011379241943	13.46192169189453	10.54404735565186	13.88091659545898	9.449878692626953	9.921470642089844	16.90881729125977	8.23863410949707	10.97534656524658	13.75714111328125	10.59738540649414	12.68395805358887	15.92367935180664	8.77706241607666	17.36000633239746	9.363932609558105	11.71869850158691	9.211190223693848	10.81606578826904	11.74027538299561	11.06554698944092	11.07415771484375	16.4178581237793	11.08244895935059	10.77931118011475	10.29988384246826	12.51180267333984	7.133200168609619	10.48995685577393	9.68193244934082	13.67398452758789	12.12981605529785	12.1836986541748	8.923334121704102	10.52787399291992	12.87692356109619	9.417142868041992	15.43447732925415
165	180	9.865195274353027	9.338945388793945	11.32518005371094	14.94438552856445	11.4824686050415	7.77540922164917	9.969270706176758	12.22714424133301	10.23377227783203	10.7288064956665	8.543375015258789	8.49345874786377	10.05849075317383	8.190420150756836	10.76824474334717	9.260088920593262	10.18395233154297	15.51627063751221	11.46469783782959	7.047846794128418	10.3100414276123	8.423620223999023	9.04261302947998	6.916167736053467	10.21540451049805	9.726783752441406	13.99514293670654	17.28791809082031	13.21426773071289	13.00083446502686	9.113533973693848	14.49010467529297	14.81424808502197	13.89962387084961	10.61318397521973	12.61462783813477	18.48979759216309	9.5032958984375	10.76726150512695	13.88994121551514	12.12750434875488	11.93072509765625	16.77925109863281	10.92142295837402	13.83002376556396	11.28782367706299	12.15773391723633	8.458290100097656	9.93135929107666	10.38547801971436	13.70315170288086	13.61470985412598	14.74022769927979	11.53001594543457	11.26204872131348	11.9185266494751	12.1004810333252	9.431808471679688	11.73870468139648	11.27593326568604	14.16110038757324	12.971510887146	12.47867965698242	12.63596630096436	11.87779426574707	12.74212837219238	10.67216300964355	12.7044677734375	10.12908172607422	11.00502681732178	15.46391201019287	9.71881103515625	10.94167137145996	14.26518726348877	11.58930969238281	13.55214309692383	15.76693820953369	9.820141792297363	15.65283584594727	11.18181228637695	12.27644920349121	10.23191261291504	10.90717601776123	11.87950801849365	12.61863136291504	12.6508617401123	17.54909133911133	12.18803310394287	10.43547916412354	10.96272754669189	12.16269397735596	9.548566818237305	11.57659530639648	10.21363830566406	13.39192867279053	11.742431640625	13.72227573394775	11.87330055236816	9.98453426361084	9.715855598449707	10.0480260848999	15.64560413360596
180	195	10.6929235458374	9.448826789855957	11.38592338562012	15.58428192138672	11.91592407226562	9.224967002868652	10.49667739868164	9.237428665161133	9.748708724975586	11.37916374206543	9.285566329956055	7.56552791595459	9.900298118591309	9.726741790771484	11.96531200408936	9.316048622131348	9.771059036254883	16.7557544708252	10.42818737030029	7.56687068939209	11.16489124298096	10.95516681671143	9.29497241973877	8.92849063873291	8.032803535461426	9.184191703796387	12.25005722045898	17.27359199523926	13.46510028839111	15.16462230682373	10.41272640228271	14.81129932403564	15.18323135375977	11.14634418487549	8.589700698852539	11.96401786804199	17.59926223754883	11.79354000091553	12.11954879760742	15.09708595275879	11.916748046875	11.98041343688965	16.03388977050781	12.2277889251709	13.56902694702148	9.917720794677734	12.16057395935059	10.08993911743164	11.39468383789062	13.7546558380127	11.92984199523926	12.56221485137939	15.27039241790771	13.60027122497559	9.811304092407227	12.25687026977539	12.46564674377441	10.50650310516357	12.46107578277588	10.89068508148193	14.55349540710449	14.53750705718994	13.03359127044678	12.75825119018555	12.39910888671875	15.21184062957764	10.62384986877441	13.67217254638672	9.742946624755859	11.97049236297607	17.79945182800293	11.09313201904297	11.50715923309326	14.48411560058594	12.4120044708252	12.25947761535645	15.95409774780273	10.00948429107666	16.99301528930664	10.69758033752441	13.3865442276001	9.808629035949707	9.370096206665039	11.88486671447754	11.76602268218994	12.9128885269165	15.98666572570801	12.62942886352539	9.127978324890137	11.9423656463623	13.47800636291504	10.39119529724121	12.04201221466064	10.53209972381592	14.39883136749268	12.24133205413818	13.52392578125	11.36343288421631	9.249448776245117	13.08085632324219	10.10422325134277	16.66246747970581
195	210	10.74258422851562	9.603558540344238	10.29361534118652	15.63717746734619	11.00793552398682	9.730010032653809	10.26160526275635	13.15665531158447	10.04686450958252	10.21204376220703	10.13592529296875	7.587066173553467	8.807771682739258	8.717107772827148	9.490723609924316	9.432700157165527	10.74486255645752	15.78226566314697	10.53458499908447	8.397704124450684	10.91705417633057	10.97859477996826	9.532832145690918	6.037962913513184	8.62283992767334	9.448684692382812	8.639458656311035	17.22069549560547	13.20954704284668	13.60527324676514	9.696403503417969	14.40313148498535	15.15460872650146	11.9433536529541	9.801432609558105	12.95070838928223	18.90954399108887	9.531632423400879	10.6006555557251	14.71372413635254	12.10258769989014	11.45717239379883	16.26792907714844	10.27541637420654	14.32169437408447	11.40658664703369	13.08737182617188	9.844573020935059	9.183932304382324	13.06382274627686	13.28213024139404	13.8122034072876	15.62642097473145	12.57696056365967	10.17849731445312	13.2749605178833	13.80588340759277	8.456812858581543	12.65112113952637	11.08023929595947	14.6150484085083	13.5121898651123	13.42835330963135	13.07642650604248	10.58941650390625	13.49399280548096	10.12023448944092	14.73749160766602	9.711429595947266	11.52746486663818	15.84253311157227	9.406674385070801	11.2725305557251	14.60579586029053	11.88353729248047	13.16521835327148	17.28818321228027	9.931218147277832	15.65684700012207	11.76956844329834	13.26773834228516	9.29866886138916	10.898512840271	11.34377288818359	12.08799934387207	11.90707874298096	17.49683380126953	12.42496585845947	9.306934356689453	12.45725059509277	12.53887271881104	11.01718711853027	11.73549175262451	9.817882537841797	13.86982917785645	12.59071350097656	13.13589096069336	12.11928462982178	8.90743350982666	13.57000732421875	11.388916015625	16.31550025939941
210	225	11.48313999176025	9.826977729797363	10.55806541442871	15.07133483886719	12.13954830169678	8.311581611633301	12.08711719512939	10.2619800567627	9.820630073547363	9.926163673400879	9.591806411743164	7.29745626449585	9.511794090270996	9.94594669342041	9.837185859680176	9.479162216186523	9.784947395324707	16.20393180847168	10.68640804290771	8.939188003540039	12.33330345153809	10.41993713378906	8.263198852539062	7.726739406585693	10.96003437042236	9.938509941101074	9.480045318603516	17.4213752746582	13.21451187133789	14.65946674346924	11.2639799118042	14.12914562225342	15.28161239624023	12.3595027923584	10.83054733276367	11.83858585357666	18.91615676879883	10.44687938690186	11.61522197723389	15.3036584854126	13.65189933776855	10.32856941223145	17.5468578338623	10.19350814819336	13.20071506500244	10.49168586730957	13.0458812713623	8.563745498657227	10.57530498504639	11.77194786071777	14.63684177398682	12.99327182769775	16.00734329223633	13.50678253173828	11.18207740783691	12.42177104949951	12.90226078033447	9.963163375854492	12.95274257659912	10.68733501434326	14.48865222930908	12.97115802764893	14.05625343322754	11.95740604400635	10.09288597106934	14.0283145904541	10.41446495056152	13.97719097137451	8.167386054992676	11.76291275024414	14.99833965301514	9.253747940063477	12.34533214569092	15.41441249847412	12.3981237411499	10.53038120269775	15.73923683166504	10.20756816864014	16.40867042541504	12.18920993804932	12.40101909637451	9.942348480224609	11.68853569030762	11.57043933868408	13.10612964630127	13.2327938079834	15.37860774993896	12.33752250671387	10.30531978607178	10.91901779174805	13.10391426086426	10.55057239532471	11.80932140350342	10.03289222717285	14.13500213623047	12.31165218353271	13.35350608825684	7.964601516723633	9.041171073913574	13.44758796691895	11.04013919830322	16.25671815872192
