frame_start	frame_end	highbinding	left_cerebral_white_matter	left_cerebellum_white_matter	left_cerebellum_cortex	left_thalamus	left_caudate	left_putamen	left_pallidum	brain_stem	left_hippocampus	left_amygdala	csf	left_accumbens_area	left_ventraldc	left_choroid_plexus	right_cerebral_white_matter	right_cerebellum_white_matter	right_cerebellum_cortex	right_thalamus	right_caudate	right_putamen	right_pallidum	right_hippocampus	right_amygdala	right_accumbens_area	right_ventraldc	right_choroid_plexus	aircavity	skull	vermis	pons	csf_extracerebral	head_extracerebral	ctx_lh_bankssts	ctx_lh_caudalanteriorcingulate	ctx_lh_caudalmiddlefrontal	ctx_lh_cuneus	ctx_lh_entorhinal	ctx_lh_fusiform	ctx_lh_inferiorparietal	ctx_lh_inferiortemporal	ctx_lh_isthmuscingulate	ctx_lh_lateraloccipital	ctx_lh_lateralorbitofrontal	ctx_lh_lingual	ctx_lh_medialorbitofrontal	ctx_lh_middletemporal	ctx_lh_parahippocampal	ctx_lh_paracentral	ctx_lh_parsopercularis	ctx_lh_parsorbitalis	ctx_lh_parstriangularis	ctx_lh_pericalcarine	ctx_lh_postcentral	ctx_lh_posteriorcingulate	ctx_lh_precentral	ctx_lh_precuneus	ctx_lh_rostralanteriorcingulate	ctx_lh_rostralmiddlefrontal	ctx_lh_superiorfrontal	ctx_lh_superiorparietal	ctx_lh_superiortemporal	ctx_lh_supramarginal	ctx_lh_frontalpole	ctx_lh_temporalpole	ctx_lh_transversetemporal	ctx_lh_insula	ctx_rh_bankssts	ctx_rh_caudalanteriorcingulate	ctx_rh_caudalmiddlefrontal	ctx_rh_cuneus	ctx_rh_entorhinal	ctx_rh_fusiform	ctx_rh_inferiorparietal	ctx_rh_inferiortemporal	ctx_rh_isthmuscingulate	ctx_rh_lateraloccipital	ctx_rh_lateralorbitofrontal	ctx_rh_lingual	ctx_rh_medialorbitofrontal	ctx_rh_middletemporal	ctx_rh_parahippocampal	ctx_rh_paracentral	ctx_rh_parsopercularis	ctx_rh_parsorbitalis	ctx_rh_parstriangularis	ctx_rh_pericalcarine	ctx_rh_postcentral	ctx_rh_posteriorcingulate	ctx_rh_precentral	ctx_rh_precuneus	ctx_rh_rostralanteriorcingulate	ctx_rh_rostralmiddlefrontal	ctx_rh_superiorfrontal	ctx_rh_superiorparietal	ctx_rh_superiortemporal	ctx_rh_supramarginal	ctx_rh_frontalpole	ctx_rh_temporalpole	ctx_rh_transversetemporal	ctx_rh_insula	reference
0	15	0	0	0	0	0	0	0	0	0	0	0	0	0	0	0	0	0	0	0	0	0	0	0	0	0	0	0	0	0	0	0	0	0	0	0	0	0	0	0	0	0	0	0	0	0	0	0	0	0	0	0	0	0	0	0	0	0	0	0	0	0	0	0	0	0	0	0	0	0	0	0	0	0	0	0	0	0	0	0	0	0	0	0	0	0	0	0	0	0	0	0	0	0	0	0	0	0	0	0	0	0	0
15	30	0	0	0	0	0	0	0	0	0	0	0	0	0	0	0	0	0	0	0	0	0	0	0	0	0	0	0	0	0	0	0	0	0	0	0	0	0	0	0	0	0	0	0	0	0	0	0	0	0	0	0	0	0	0	0	0	0	0	0	0	0	0	0	0	0	0	0	0	0	0	0	0	0	0	0	0	0	0	0	0	0	0	0	0	0	0	0	0	0	0	0	0	0	0	0	0	0	0	0	0	0	0
30	45	0.021020725369453	0.04901989176869392	0.0242724884301424	0.01905304379761219	0.03734802454710007	0.01507708616554737	0.0181015282869339	0.003613419597968459	0.02279799804091454	0.03184428438544273	0.00820132065564394	0.06978126615285873	0.1092834025621414	0.05964840203523636	0.1120145916938782	0.05275000259280205	0.007774204947054386	0.02504355646669865	0.01699564792215824	0.06834006309509277	0.02520213089883327	0.06080561503767967	0.03666152805089951	0.1738669276237488	0.1103353127837181	0.02567397058010101	0.2165269106626511	0.01474692206829786	0.01919583976268768	0.004464378580451012	0.08919131010770798	0.04659764096140862	0.01358869671821594	0.1601833254098892	0.09117034077644348	0.02160000801086426	0.0185252521187067	0.0153119619935751	0.01900899410247803	0.03662556409835815	0.03692864999175072	0.01153268199414015	0.04477829113602638	0.03696401044726372	0.02613098546862602	0.02309922315180302	0.06558054685592651	0.02537571452558041	0.03208063170313835	0.0797368660569191	0.01495507825165987	0.02601025626063347	0.01974398642778397	0.0182656142860651	0.09632253646850586	0.06001350656151772	0.04921736195683479	0.07894605398178101	0.03512275964021683	0.05237720534205437	0.04287884011864662	0.04124261811375618	0.06845540553331375	0.02536295913159847	0.009959634393453598	0.07878358662128448	0.05058308318257332	0.1745113283395767	0.0178136769682169	0.0374193862080574	0.01376645360141993	0.2069792300462723	0.01621680147945881	0.03924645110964775	0.06190945580601692	0.024700827896595	0.0314498208463192	0.15008644759655	0.03469972684979439	0.08314114809036255	0.04486190155148506	0.004257797263562679	0.03069516457617283	0.05410730466246605	0.06073109433054924	0.04393169656395912	0.05036074668169022	0.07093189656734467	0.05824018642306328	0.05491387844085693	0.03848111256957054	0.08462201803922653	0.0150050101801753	0.03143082559108734	0.0178252961486578	0.07145486772060394	0.0470435693860054	0.00313137611374259	0.06748562306165695	0.1194299608469009	0.0494290217757225	0.018759085796773
45	60	0.592277526855469	0.4878263771533966	0.4329389035701752	0.6445837616920471	0.4493833184242249	0.4132008254528046	0.5853495597839355	0.239594042301178	0.5713610649108887	0.9359069466590881	1.211530685424805	0.5487541556358337	1.215598344802856	0.8065667152404785	0.3029452562332153	0.4722356498241425	0.3634303212165833	0.5372245907783508	0.8248698115348816	0.5107346177101135	0.6017664670944214	0.5579686164855957	0.6477770209312439	1.968834400177002	0.4437646269798279	0.7527799606323242	0.8552588820457458	0.2793906331062317	0.3336799442768097	0.4696543216705322	0.571076512336731	0.9552299380302429	0.3540565073490143	0.534375011920929	0.5693373680114746	0.6182643175125122	0.8855367302894592	0.769917905330658	0.6326941847801208	0.6656827330589294	0.6587528586387634	0.6736529469490051	0.6657127141952515	0.5876289010047913	0.9049079418182373	0.8297263979911804	0.717994749546051	0.9206034541130066	0.7492069005966187	0.6432658433914185	0.6123030781745911	0.6239109635353088	0.5818323493003845	0.651606559753418	0.8244715929031372	0.5462624430656433	0.5771907567977905	0.791129469871521	0.598549485206604	0.6635265946388245	0.5984922051429749	0.7447411417961121	0.5284641981124878	0.6087030172348022	0.8358154296875	1.762930154800415	0.9556228518486023	0.3163627982139587	0.7461804747581482	0.6202435493469238	0.6856743097305298	0.6203351616859436	0.5738089084625244	0.6110615730285645	0.4934161305427551	0.9140476584434509	0.59498131275177	0.6198791265487671	0.7661949396133423	0.738360583782196	0.6064514517784119	0.7983465790748596	0.6017215251922607	0.6424364447593689	0.5406174063682556	0.5021710395812988	0.679506778717041	0.7944759130477905	0.4910662472248077	0.6570534110069275	0.6409206390380859	1.141770243644714	0.6891822218894958	0.6425647735595703	0.616730809211731	0.8246461749076843	0.5636410713195801	1.229732275009155	0.6736724376678467	1.164689779281616	0.9157888889312744	0.556152686476707
60	75	1.989358901977539	1.595051884651184	1.517258405685425	2.505727291107178	1.994633316993713	2.020582675933838	2.072438955307007	1.4361732006073	1.928309679031372	2.567728757858276	1.806591033935547	1.967629790306091	3.473840951919556	1.633219599723816	3.553077697753906	1.609979748725891	1.443206906318665	2.24285364151001	2.095291137695312	1.519757986068726	1.70753276348114	1.289843440055847	2.725152015686035	3.818545341491699	1.608094692230225	3.061831474304199	1.818399310112	1.09532368183136	1.392330527305603	1.786897778511047	1.72226870059967	3.658777713775635	1.455065369606018	2.420318365097046	2.697404146194458	2.213006258010864	3.27049446105957	1.671930432319641	2.151616096496582	2.249728679656982	2.015542984008789	2.515642166137695	2.169279813766479	1.783554911613464	2.727022409439087	2.641967296600342	1.96485710144043	2.143010139465332	2.263772487640381	2.662575721740723	2.104352474212646	2.463751792907715	2.290237903594971	2.496163845062256	2.223470687866211	2.107097864151001	2.121085405349731	1.92721951007843	2.118555545806885	2.120335578918457	2.149733781814575	2.52131462097168	2.092718124389648	1.957022547721863	1.588620185852051	3.092248916625977	2.522784233093262	1.939497828483582	2.294326305389404	2.146721839904785	3.014976501464844	2.067863941192627	2.283318042755127	1.988910794258118	2.056530237197876	2.774857521057129	2.639389991760254	2.274744510650635	2.70723819732666	2.324275970458984	2.317652702331543	2.336834907531738	2.013029336929321	2.014266967773438	1.782944560050964	2.039090156555176	2.956655502319336	2.489265918731689	2.258001327514648	2.369014739990234	2.444432973861694	2.576649904251099	2.020011901855469	2.05660605430603	2.542136430740356	2.392137765884399	2.188894748687744	2.24542236328125	2.395046949386597	4.58806037902832	2.955696105957031	2.256721615791321
75	90	4.058902740478516	3.184379816055298	2.807144403457642	5.235809803009033	4.425111770629883	4.009933471679688	3.722437143325806	3.997562170028687	4.098370552062988	5.395673751831055	4.999092102050781	3.619727849960327	2.958311796188354	4.585703372955322	4.325765609741211	3.128286600112915	3.361413955688477	4.643205165863037	4.191536426544189	3.365033626556396	3.456242561340332	3.31457781791687	4.276627063751221	5.853640556335449	4.598727703094482	4.498652935028076	7.23238468170166	2.207874774932861	2.896703958511353	4.224722862243652	3.15334153175354	7.142733573913574	3.204017639160156	4.56702709197998	5.324143409729004	4.421191215515137	6.770510673522949	3.663960933685303	4.780578136444092	4.555599689483643	3.978357076644897	5.549289226531982	5.050903797149658	4.307657241821289	5.640023708343506	5.177085399627686	4.615356922149658	4.942592144012451	4.320181369781494	3.966269969940186	3.706434965133667	4.782711982727051	4.566143035888672	4.274215221405029	4.847243309020996	4.229843616485596	4.759732246398926	5.248021602630615	4.263199329376221	4.400584697723389	4.275278091430664	4.283539772033691	4.175314426422119	5.14024543762207	3.492184162139893	6.355527877807617	5.025524616241455	3.351876258850098	4.361895084381104	3.928482055664062	6.58065128326416	3.537826538085938	4.177871704101562	4.454022884368896	3.63454008102417	5.777035236358643	5.252272129058838	4.298890590667725	5.842440605163574	4.370357036590576	3.984578371047974	4.269570827484131	4.332786560058594	4.460146427154541	3.601506233215332	4.153294086456299	5.04758882522583	4.233475208282471	4.902682304382324	4.704562664031982	5.242995262145996	4.890142917633057	4.042752742767334	4.354516506195068	4.364667415618896	4.479801177978516	4.44204044342041	4.636477470397949	3.839626312255859	8.188017845153809	4.905279636383057	4.756184101104736
90	105	5.986147880554199	4.758689403533936	4.506931304931641	7.917694091796875	6.064186096191406	5.66867733001709	5.082633495330811	4.443769931793213	5.429133415222168	6.955683708190918	7.519369125366211	5.340752124786377	4.331527233123779	5.757439136505127	7.816423416137695	4.792888641357422	4.232936859130859	6.850082397460938	6.109564304351807	4.89937162399292	5.632473945617676	3.569912910461426	6.654870510101318	7.400930881500244	5.179370880126953	5.383357048034668	5.862295150756836	3.420388460159302	4.710416793823242	5.280837535858154	4.557165145874023	10.16319274902344	5.163346767425537	6.204413414001465	5.624414443969727	5.86056661605835	9.861143112182617	6.375892162322998	6.097654342651367	6.789042472839355	5.552661895751953	7.446248054504395	6.563493251800537	5.871623516082764	8.481876373291016	6.647441387176514	6.28056526184082	6.867175102233887	6.543781280517578	6.614685535430908	5.720413208007812	6.596940517425537	7.43862247467041	5.936553955078125	6.943010807037354	6.253674507141113	6.503713130950928	7.131412982940674	6.228872299194336	6.34788703918457	6.746014595031738	7.046196460723877	6.174422740936279	5.903909206390381	4.368215084075928	9.309555053710938	7.564365386962891	6.399034023284912	7.268628120422363	6.241526126861572	10.10477352142334	5.454778671264648	5.557437419891357	6.072974681854248	6.278539657592773	7.862908363342285	8.149857521057129	6.216061115264893	8.872247695922852	6.712771892547607	6.408633708953857	5.93789529800415	6.463781356811523	6.645421028137207	5.544313430786133	7.216143608093262	9.466724395751953	6.524518489837646	6.042798519134521	6.635941505432129	7.164941787719727	6.754313468933105	6.430162906646729	6.710060119628906	6.48473596572876	6.607026100158691	6.570205688476562	9.607538223266602	4.958463191986084	10.14625263214111	7.649297714233398	7.233512163162231
105	120	7.323206424713135	6.073502063751221	5.633293628692627	10.39938735961914	7.403164863586426	6.102962017059326	5.9326491355896	4.514867305755615	6.443681240081787	7.815147876739502	7.987727642059326	6.844644069671631	6.361534118652344	8.886178016662598	10.97305965423584	6.134873390197754	5.508408069610596	8.714570999145508	7.359679222106934	7.496767044067383	7.424942016601562	5.62751579284668	7.710347652435303	9.379467964172363	6.372105598449707	8.143802642822266	9.099282264709473	4.673145771026611	6.237851142883301	7.451477527618408	6.099234580993652	12.17209339141846	6.876498699188232	8.258633613586426	8.590729713439941	8.138270378112793	13.58957195281982	6.795732021331787	8.564166069030762	8.295805931091309	6.712951183319092	9.160569190979004	9.167580604553223	7.328688621520996	10.7494068145752	8.113554000854492	7.56110668182373	5.431882381439209	7.832893371582031	9.371156692504883	8.735712051391602	9.138637542724609	9.867321014404297	7.999019622802734	7.732854843139648	8.229310035705566	7.900282859802246	8.508916854858398	8.291621208190918	8.403390884399414	8.52434253692627	8.404662132263184	7.905375957489014	8.506244659423828	7.17908763885498	11.90338230133057	8.884823799133301	5.816855907440186	7.386359214782715	7.780940532684326	11.03872489929199	6.893667221069336	6.634758472442627	7.864094734191895	7.647427558898926	8.829329490661621	10.2606840133667	7.366218566894531	10.47381210327148	7.297195911407471	8.511654853820801	8.001843452453613	7.565604686737061	8.077030181884766	8.331184387207031	7.803051948547363	11.05373764038086	7.907694339752197	7.719625949859619	8.649275779724121	8.686017036437988	7.443251132965088	7.645013809204102	8.090090751647949	8.580764770507812	7.883967399597168	8.239336967468262	11.03512191772461	6.839863777160645	10.88360977172852	8.368847846984863	9.505534648895264
120	135	8.94562816619873	7.66423511505127	6.628673076629639	12.62412166595459	9.551395416259766	7.358124256134033	9.092177391052246	7.280236721038818	8.662837028503418	10.04586601257324	10.96763706207275	7.905333518981934	6.732125282287598	8.885351181030273	10.75884056091309	7.667105197906494	7.688164710998535	10.75479984283447	9.529242515563965	7.471870899200439	8.026088714599609	6.648372173309326	11.26025485992432	8.878252029418945	6.713320732116699	7.707803249359131	9.609210968017578	5.705020427703857	7.895339965820312	9.321059226989746	7.278671741485596	14.62477588653564	8.760122299194336	9.840970993041992	11.37610340118408	10.02490139007568	16.03879547119141	8.647229194641113	10.01749515533447	10.43713092803955	9.201363563537598	12.0472412109375	11.58796310424805	10.11797523498535	13.19529819488525	10.7365026473999	9.818851470947266	9.461057662963867	11.19014358520508	12.01425933837891	8.684662818908691	9.628542900085449	11.56301784515381	9.98934268951416	10.36178398132324	10.66121101379395	9.718755722045898	10.63397789001465	10.26689338684082	10.46036911010742	10.70973873138428	10.18408298492432	10.08981132507324	11.48736381530762	8.036343574523926	11.42619323730469	11.1967945098877	8.692421913146973	10.31941413879395	9.555924415588379	14.37596607208252	8.915843963623047	9.336355209350586	9.925705909729004	9.789339065551758	10.65165710449219	12.57902336120605	9.70307731628418	12.90913677215576	8.920255661010742	9.529159545898438	8.947012901306152	10.02630805969238	10.08844089508057	9.847843170166016	10.06639575958252	13.14770603179932	10.09641361236572	9.295408248901367	10.54014492034912	11.4106912612915	10.33570957183838	9.721498489379883	10.35285663604736	10.4616756439209	11.01210784912109	10.79201221466064	13.73315811157227	7.325538635253906	13.46079158782959	10.5959529876709	11.60604381561279
135	150	10.10381698608398	8.595126152038574	7.671506404876709	14.01669120788574	10.0679988861084	8.599142074584961	10.87308311462402	8.167765617370605	8.243010520935059	9.673575401306152	10.73994636535645	8.338289260864258	6.641245365142822	8.10435676574707	11.56301975250244	8.323076248168945	7.61909008026123	12.22531127929688	10.72395896911621	8.315967559814453	9.210795402526855	8.485237121582031	9.035523414611816	8.895397186279297	10.77139091491699	8.736479759216309	13.45067882537842	6.230023860931396	8.915130615234375	12.49725246429443	8.662643432617188	15.69573593139648	9.844157218933105	10.36446857452393	11.26485347747803	11.03873634338379	18.53151702880859	7.320470809936523	11.0365104675293	11.85929203033447	10.12932777404785	12.80014133453369	13.06817054748535	9.489779472351074	15.57208156585693	11.23488712310791	11.1531400680542	8.262866973876953	9.773366928100586	12.87032127380371	9.344561576843262	10.31854248046875	12.67093467712402	11.87709999084473	10.53997325897217	11.31880950927734	10.62747669219971	11.91627883911133	11.32287979125977	11.76473522186279	11.72789764404297	10.05974197387695	11.68471908569336	11.82438373565674	7.19301700592041	14.56188583374023	11.15275955200195	11.79129219055176	9.956761360168457	10.96487236022949	16.14568328857422	7.512659549713135	9.903779029846191	12.00182151794434	10.13474464416504	12.52726745605469	14.40717792510986	10.08690357208252	13.75553226470947	10.78817176818848	10.47983837127686	9.312422752380371	11.60347747802734	11.79222106933594	10.38603496551514	10.36294841766357	16.89825057983398	10.8209810256958	9.652393341064453	11.45297813415527	11.49867725372314	12.05937576293945	10.63756465911865	11.33320713043213	12.17567825317383	11.63590717315674	11.2753438949585	13.046462059021	7.343820095062256	14.39801502227783	10.58573627471924	13.12807130813599
150	165	10.43391799926758	9.374626159667969	9.161063194274902	15.40852737426758	11.68278980255127	9.071371078491211	9.90880012512207	7.646596908569336	8.824460029602051	10.7407112121582	10.59652709960938	8.970446586608887	9.763468742370605	9.639228820800781	9.571351051330566	9.507913589477539	9.503207206726074	14.0204029083252	9.824526786804199	8.595076560974121	10.63733005523682	9.779430389404297	12.18068504333496	10.4840202331543	8.848490715026855	9.835202217102051	11.99430561065674	7.048981666564941	10.02854633331299	13.22946071624756	9.469667434692383	16.81768798828125	11.17812728881836	11.63731956481934	11.03542804718018	12.33187961578369	19.91241836547852	10.11431503295898	12.17483997344971	12.50995540618896	10.76292991638184	14.1561393737793	14.78332138061523	11.31673431396484	16.08104515075684	11.45572280883789	11.54847812652588	9.243411064147949	12.17413520812988	12.71707820892334	12.37069797515869	11.51889610290527	15.79318523406982	13.12459468841553	10.70099067687988	12.37179374694824	12.04205799102783	12.04208374023438	12.93878936767578	12.54622745513916	12.66317939758301	11.77297210693359	11.65815925598145	14.24185848236084	10.19927883148193	16.06881141662598	11.38171863555908	12.4649600982666	12.05015754699707	11.17294979095459	19.09246063232422	8.696045875549316	10.82189273834229	12.5047082901001	11.15553855895996	13.95553779602051	15.27624607086182	12.57450199127197	15.71149063110352	11.64818477630615	10.70629119873047	12.66692447662354	11.66534233093262	13.66770076751709	10.80291938781738	12.29310512542725	18.07498168945312	13.40102386474609	12.07449722290039	13.317063331604	13.36115264892578	10.7443675994873	12.725998878479	13.18645000457764	13.53290367126465	12.95787811279297	12.42775058746338	12.92209243774414	8.411660194396973	15.28553104400635	12.72044944763184	14.82992792129517
165	180	10.50385189056396	9.862488746643066	9.73914623260498	15.2336254119873	11.83968639373779	8.52988338470459	11.0254955291748	10.93906497955322	9.997007369995117	11.53575038909912	12.76786613464355	9.266007423400879	9.226812362670898	9.572502136230469	15.29975986480713	9.829897880554199	9.002063751220703	14.58715534210205	10.1142110824585	9.252629280090332	10.37887096405029	10.15497493743896	10.96821689605713	12.93092346191406	11.43012142181396	9.764273643493652	14.42955589294434	7.126336574554443	10.64135551452637	14.31265068054199	9.443049430847168	16.76089477539062	12.16896724700928	14.35586452484131	10.70952415466309	12.53636932373047	19.18014717102051	10.8048677444458	12.70285701751709	14.16339874267578	11.57111549377441	13.26635265350342	15.61617183685303	12.00312328338623	16.84020805358887	12.61506366729736	12.57450008392334	11.10779476165771	13.74382209777832	14.70967864990234	12.96630859375	13.21097564697266	15.56165218353271	13.63298511505127	14.20078754425049	13.34041976928711	12.47397327423096	11.98367786407471	13.54497909545898	13.66949272155762	13.50709915161133	12.07869434356689	13.97981071472168	13.10567569732666	9.279725074768066	16.23508453369141	12.11179447174072	12.66372871398926	12.96530818939209	13.06400871276855	18.26497268676758	8.928735733032227	10.88512516021729	13.90274333953857	11.86428642272949	12.7370719909668	17.20186233520508	13.02281379699707	17.46676445007324	12.19532012939453	13.16528987884521	11.54761028289795	13.37652492523193	13.92743301391602	9.229910850524902	12.32643890380859	17.0336856842041	13.58923721313477	12.08766078948975	13.45093250274658	14.20795249938965	12.07753849029541	13.5365161895752	13.96176910400391	13.80002975463867	13.62854862213135	13.43783092498779	14.30147933959961	7.192215919494629	17.70056533813477	11.98015785217285	15.10572052001953
180	195	11.33547306060791	10.06357669830322	10.79260921478271	15.98655033111572	11.13136672973633	8.638360977172852	11.92214393615723	7.629548072814941	9.841053009033203	12.39512062072754	11.6242151260376	9.103385925292969	7.929283142089844	10.53793048858643	11.23532009124756	10.07849502563477	10.43849182128906	14.17650413513184	11.86127376556396	10.06971073150635	10.86672115325928	10.97683238983154	11.60921764373779	10.9229621887207	11.01991939544678	9.380176544189453	13.03549003601074	7.207039833068848	10.94610500335693	16.45088768005371	9.651588439941406	16.00747299194336	12.21405696868896	14.38884544372559	11.51375865936279	12.8776159286499	19.8234920501709	9.993342399597168	13.05587196350098	12.94284725189209	12.33817291259766	13.98888301849365	16.39192199707031	13.04561996459961	16.53666114807129	11.60317993164062	13.11601066589355	8.584156036376953	13.25013732910156	14.13443756103516	11.09188079833984	13.39443206787109	16.83440399169922	13.82411575317383	14.58438205718994	13.85853958129883	13.82440185546875	11.7459716796875	13.60235500335693	13.75728225708008	13.8351583480835	12.79054355621338	13.3430233001709	15.49718761444092	8.407572746276855	12.1959753036499	13.25316047668457	13.68611621856689	11.24497413635254	13.46642017364502	18.99374961853027	10.94052124023438	12.80999279022217	13.79525947570801	12.28250980377197	13.63899040222168	16.51894950866699	12.44786930084229	15.93742179870605	11.34253692626953	12.07927417755127	10.10864162445068	13.16494178771973	13.23234844207764	11.48034858703613	12.14564800262451	19.71550369262695	13.50174427032471	11.28309345245361	14.06533241271973	14.13450241088867	10.1370792388916	13.99549007415771	13.61972332000732	13.53407859802246	12.66174697875977	13.30789375305176	14.16591835021973	8.931845664978027	14.16152191162109	11.99145984649658	15.37587928771973
195	210	12.345290184021	10.49526309967041	10.50028514862061	15.48831462860107	13.05048084259033	9.252117156982422	12.87055206298828	11.13473510742188	9.365078926086426	10.83162021636963	10.14147090911865	9.477167129516602	10.7996997833252	10.80849933624268	12.97859954833984	10.51607322692871	10.28608322143555	15.00986099243164	13.42563819885254	9.816276550292969	11.7272424697876	9.295604705810547	11.06817722320557	9.274982452392578	10.41514778137207	11.00823307037354	13.83931350708008	7.324114799499512	11.25214767456055	14.86476898193359	9.528310775756836	15.65216827392578	12.52212333679199	13.59066390991211	11.56498432159424	14.40696144104004	21.10119819641113	10.4048376083374	12.40877246856689	14.11807155609131	12.14021587371826	10.86479568481445	16.48882865905762	12.21732330322266	16.24160957336426	12.83790683746338	13.67219257354736	10.48306369781494	14.16140270233154	15.36798191070557	12.19018936157227	12.06536865234375	14.85969257354736	14.67710971832275	12.26165676116943	14.63240718841553	14.48825550079346	12.70649909973145	14.32325839996338	13.84024810791016	14.35787010192871	12.88829135894775	13.77466201782227	13.76873779296875	8.809901237487793	16.44726943969727	11.2376651763916	12.88443851470947	11.21231746673584	14.52348041534424	19.58992195129395	11.62630367279053	11.89082717895508	13.89498710632324	11.6984748840332	13.97868251800537	16.9668083190918	12.69056701660156	14.87078189849854	12.51831912994385	12.20628452301025	11.5665979385376	13.5095329284668	13.7075891494751	12.59831428527832	13.3206615447998	18.40906715393066	14.1947717666626	11.89273357391357	14.27729320526123	14.16863346099854	12.10933589935303	13.87656307220459	14.09955883026123	13.69397640228271	13.59420204162598	15.76720905303955	15.30903434753418	9.677167892456055	16.5263843536377	13.04539203643799	15.69978523254395
210	225	12.22391223907471	10.90092849731445	11.72914218902588	15.95429420471191	12.45407104492188	10.57601547241211	11.91614437103271	11.16349220275879	9.398935317993164	10.79134845733643	9.39692497253418	9.238131523132324	10.87864589691162	9.505472183227539	14.1290111541748	10.71864223480225	10.64482975006104	15.12713527679443	11.9679708480835	10.1973180770874	12.84620380401611	13.20028400421143	11.43959331512451	10.60591411590576	9.829717636108398	10.46309757232666	13.0187406539917	7.275105953216553	11.34262180328369	13.03641510009766	9.777552604675293	15.28935146331787	12.74568557739258	13.3274097442627	10.37836265563965	14.20358562469482	19.8520450592041	10.31286430358887	13.10478115081787	14.28197860717773	12.70733165740967	10.66164684295654	16.45309829711914	13.75181293487549	15.91839790344238	12.1674633026123	13.70578384399414	10.58390808105469	13.3300724029541	14.15882396697998	12.89358329772949	14.48169708251953	16.29663276672363	14.50554370880127	13.89134883880615	13.44427490234375	13.79901313781738	12.29104614257812	15.13438415527344	13.98967742919922	14.54872035980225	13.39303207397461	14.42678737640381	13.61315250396729	11.03516006469727	13.72976779937744	12.23957920074463	13.94309997558594	10.80857563018799	14.06646347045898	17.17431449890137	9.483595848083496	12.27895164489746	15.15390491485596	11.70479965209961	13.4666748046875	17.04859924316406	11.61030960083008	16.69839286804199	12.84997081756592	13.17887020111084	10.67638778686523	12.92578315734863	14.12621879577637	12.63453006744385	14.10842895507812	18.70323181152344	14.37234020233154	12.58076477050781	14.13408184051514	14.67926216125488	12.48593997955322	14.21326732635498	14.0275707244873	14.36105918884277	13.27820587158203	14.63526248931885	12.42491436004639	6.985437393188477	17.44346237182617	12.39822578430176	16.04050588607788
225	240	12.85178565979004	10.83644866943359	9.981884002685547	16.04833030700684	13.40364551544189	10.55480480194092	13.37629699707031	12.33230209350586	9.834200859069824	11.25154209136963	12.29770755767822	8.96193790435791	9.934244155883789	10.52414798736572	11.29042911529541	11.02498626708984	11.46408557891846	15.51305294036865	10.94099617004395	10.20376968383789	13.69028091430664	12.57497501373291	12.03811359405518	8.976099014282227	15.44989013671875	10.66211032867432	12.29021835327148	7.53767204284668	11.32308673858643	15.7926721572876	11.13463115692139	15.33860111236572	12.84524917602539	12.41801834106445	11.60574531555176	14.48069000244141	19.89949417114258	10.95812797546387	14.23148441314697	14.78651428222656	12.19313144683838	12.9153413772583	16.52681922912598	12.24477481842041	16.71181106567383	13.82718658447266	14.01638126373291	11.32427406311035	13.64521217346191	16.64624977111816	12.48128604888916	14.30175971984863	17.41898536682129	15.21829891204834	13.27524185180664	14.87009811401367	14.17090129852295	11.66306018829346	15.11257171630859	13.92256736755371	14.79804801940918	12.53791236877441	13.40499019622803	13.00903224945068	12.48007392883301	16.63882827758789	13.19792652130127	15.20026302337646	11.91242980957031	13.36485385894775	17.98012351989746	9.305318832397461	13.10282611846924	14.73302555084229	12.78361892700195	13.75010776519775	18.08827590942383	13.78495121002197	17.53537559509277	11.83314037322998	13.77591323852539	9.612457275390625	14.11426258087158	15.2081995010376	12.14584732055664	12.76553630828857	19.11536979675293	14.764817237854	13.57431793212891	14.59349250793457	15.14389324188232	11.85445690155029	14.04374980926514	14.63372230529785	14.3356819152832	13.42592239379883	14.59697532653809	14.53951549530029	8.731444358825684	17.55121803283691	13.04592514038086	16.37682199478149
